Date,Low,Open,Volume,High,Close,Adjusted Close
04-10-1989,2.4375,2.46875,20636000,2.546875,2.5,1.8624958992004395
05-10-1989,2.5,2.515625,6453600,2.625,2.578125,1.9206998348236084
06-10-1989,2.546875,2.59375,2755200,2.625,2.546875,1.8974180221557617
09-10-1989,2.5,2.546875,1084000,2.546875,2.546875,1.8974180221557617
10-10-1989,2.5,2.5625,1493600,2.5625,2.53125,1.8857775926589966
11-10-1989,2.46875,2.5,1260000,2.515625,2.515625,1.8741377592086792
12-10-1989,2.515625,2.515625,602400,2.546875,2.53125,1.8857775926589966
13-10-1989,2.46875,2.53125,3970400,2.53125,2.484375,1.8508548736572266
16-10-1989,2.375,2.375,3924800,2.46875,2.46875,1.8392159938812256
17-10-1989,2.4375,2.4375,1843200,2.5,2.5,1.8624958992004395
18-10-1989,2.484375,2.5,1128000,2.5625,2.546875,1.8974180221557617
19-10-1989,2.53125,2.53125,1040000,2.546875,2.546875,1.8974180221557617
20-10-1989,2.515625,2.53125,237600,2.53125,2.53125,1.8857775926589966
23-10-1989,2.546875,2.546875,87200,2.5625,2.546875,1.8974180221557617
24-10-1989,2.53125,2.546875,689600,2.5625,2.5625,1.9090580940246582
25-10-1989,2.515625,2.546875,608000,2.578125,2.546875,1.8974180221557617
26-10-1989,2.546875,2.546875,228800,2.5625,2.546875,1.8974180221557617
27-10-1989,2.5,2.546875,456000,2.546875,2.515625,1.8741377592086792
30-10-1989,2.5,2.515625,250400,2.515625,2.5,1.8624958992004395
31-10-1989,2.5,2.5,424800,2.515625,2.5,1.8624958992004395
01-11-1989,2.515625,2.515625,715200,2.5625,2.5625,1.9090580940246582
02-11-1989,2.59375,2.59375,130400,2.640625,2.640625,1.967262864112854
03-11-1989,2.625,2.625,1118400,2.75,2.734375,2.0371057987213135
06-11-1989,2.578125,2.71875,264800,2.71875,2.578125,1.9206998348236084
07-11-1989,2.5,2.546875,727200,2.6875,2.6875,2.002183437347412
08-11-1989,2.671875,2.6875,236800,2.71875,2.71875,2.0254650115966797
09-11-1989,2.6875,2.71875,60800,2.71875,2.6875,2.002183437347412
10-11-1989,2.546875,2.6875,210400,2.6875,2.5625,1.9090580940246582
13-11-1989,2.515625,2.5625,92800,2.5625,2.546875,1.8974180221557617
14-11-1989,2.484375,2.578125,428000,2.578125,2.53125,1.8857775926589966
15-11-1989,2.53125,2.546875,176000,2.578125,2.5625,1.9090580940246582
16-11-1989,2.546875,2.546875,301600,2.59375,2.59375,1.9323407411575317
17-11-1989,2.59375,2.59375,249600,2.640625,2.640625,1.967262864112854
20-11-1989,2.609375,2.65625,43200,2.65625,2.609375,1.9439805746078491
21-11-1989,2.59375,2.59375,108800,2.671875,2.671875,1.9905431270599365
22-11-1989,2.6875,2.6875,255200,2.75,2.75,2.048746109008789
24-11-1989,2.78125,2.78125,572000,2.953125,2.921875,2.176793098449707
27-11-1989,2.859375,2.90625,253600,2.9375,2.875,2.141871213912964
28-11-1989,2.828125,2.875,560000,2.875,2.828125,2.106950521469116
29-11-1989,2.78125,2.8125,60800,2.8125,2.796875,2.083667039871216
30-11-1989,2.8125,2.8125,712800,2.90625,2.890625,2.1535110473632812
01-12-1989,2.890625,2.890625,356800,2.953125,2.90625,2.1651527881622314
04-12-1989,2.875,2.9375,172000,2.984375,2.984375,2.2233550548553467
05-12-1989,2.90625,2.953125,93600,2.984375,2.90625,2.1651527881622314
06-12-1989,2.90625,2.90625,668800,3.0,2.984375,2.2233550548553467
07-12-1989,2.921875,2.984375,215200,2.984375,2.953125,2.2000741958618164
08-12-1989,2.921875,2.921875,122400,2.953125,2.953125,2.2000741958618164
11-12-1989,2.9375,2.96875,306400,3.03125,3.0,2.2349963188171387
12-12-1989,2.984375,3.015625,1119200,3.03125,3.015625,2.246636152267456
13-12-1989,2.984375,3.0,400000,3.15625,3.15625,2.351402759552002
14-12-1989,3.109375,3.125,391200,3.140625,3.125,2.328120470046997
15-12-1989,3.09375,3.140625,155200,3.140625,3.109375,2.3164801597595215
18-12-1989,3.03125,3.078125,224000,3.125,3.03125,2.25827693939209
19-12-1989,3.03125,3.03125,215200,3.0625,3.0625,2.2815589904785156
20-12-1989,3.046875,3.0625,166400,3.109375,3.078125,2.293199062347412
21-12-1989,3.0625,3.109375,174400,3.125,3.109375,2.3164801597595215
22-12-1989,3.109375,3.125,173600,3.125,3.125,2.328120470046997
26-12-1989,3.078125,3.109375,97600,3.109375,3.078125,2.293199062347412
27-12-1989,3.03125,3.0625,144000,3.0625,3.03125,2.25827693939209
28-12-1989,3.03125,3.046875,11200,3.046875,3.03125,2.25827693939209
29-12-1989,3.015625,3.03125,219200,3.15625,3.15625,2.351402759552002
02-01-1990,3.03125,3.125,194400,3.125,3.046875,2.269918203353882
03-01-1990,3.03125,3.0625,361600,3.0625,3.03125,2.25827693939209
04-01-1990,2.953125,3.03125,166400,3.0625,2.953125,2.2000741958618164
05-01-1990,2.859375,2.9375,100800,2.9375,2.90625,2.1651527881622314
08-01-1990,2.84375,2.875,880800,2.890625,2.859375,2.13023042678833
09-01-1990,2.8125,2.828125,282400,2.84375,2.8125,2.0953097343444824
10-01-1990,2.6875,2.765625,784000,2.765625,2.703125,2.018310546875
11-01-1990,2.703125,2.71875,347200,2.765625,2.75,2.053309202194214
12-01-1990,2.6875,2.71875,159200,2.734375,2.71875,2.0299761295318604
15-01-1990,2.71875,2.734375,25600,2.734375,2.71875,2.0299761295318604
16-01-1990,2.625,2.6875,172800,2.703125,2.703125,2.018310546875
17-01-1990,2.71875,2.71875,216000,2.8125,2.71875,2.0299761295318604
18-01-1990,2.6875,2.6875,157600,2.71875,2.703125,2.018310546875
19-01-1990,2.734375,2.734375,8800,2.75,2.75,2.053309202194214
22-01-1990,2.71875,2.734375,56800,2.75,2.734375,2.041642665863037
23-01-1990,2.734375,2.765625,101600,2.765625,2.75,2.053309202194214
24-01-1990,2.6875,2.734375,26400,2.734375,2.6875,2.0066425800323486
25-01-1990,2.671875,2.6875,249600,2.71875,2.71875,2.0299761295318604
26-01-1990,2.671875,2.703125,45600,2.71875,2.671875,1.9949766397476196
29-01-1990,2.625,2.6875,444000,2.6875,2.640625,1.9716442823410034
30-01-1990,2.578125,2.625,548000,2.65625,2.65625,1.9833111763000488
31-01-1990,2.6875,2.6875,757600,2.859375,2.859375,2.1349751949310303
01-02-1990,2.84375,2.875,149600,2.875,2.859375,2.1349751949310303
02-02-1990,2.875,2.875,720000,2.90625,2.875,2.146641492843628
05-02-1990,2.875,2.90625,163200,2.90625,2.875,2.146641492843628
06-02-1990,2.84375,2.875,99200,2.90625,2.890625,2.1583077907562256
07-02-1990,2.90625,2.90625,32800,2.9375,2.9375,2.1933085918426514
08-02-1990,2.96875,2.96875,346400,3.125,3.046875,2.2749733924865723
09-02-1990,2.96875,3.078125,179200,3.125,3.0,2.2399742603302
12-02-1990,2.90625,3.0,28000,3.0,2.90625,2.1699752807617188
13-02-1990,2.9375,2.9375,26400,2.953125,2.953125,2.2049741744995117
14-02-1990,2.9375,2.953125,32800,2.96875,2.9375,2.1933085918426514
15-02-1990,2.953125,2.953125,152000,2.96875,2.953125,2.2049741744995117
16-02-1990,2.96875,2.96875,32000,2.96875,2.96875,2.216639280319214
20-02-1990,2.953125,2.984375,23200,2.984375,2.953125,2.2049741744995117
21-02-1990,2.90625,2.953125,553600,2.953125,2.90625,2.1699752807617188
22-02-1990,2.84375,2.90625,148000,2.90625,2.84375,2.1233088970184326
23-02-1990,2.6875,2.78125,575200,2.78125,2.71875,2.0299761295318604
26-02-1990,2.734375,2.734375,477600,2.75,2.75,2.053309202194214
27-02-1990,2.765625,2.765625,357600,2.84375,2.84375,2.1233088970184326
28-02-1990,2.796875,2.8125,145600,2.828125,2.796875,2.0883078575134277
01-03-1990,2.75,2.796875,225600,2.796875,2.75,2.053309202194214
02-03-1990,2.6875,2.75,931200,2.78125,2.703125,2.018310546875
05-03-1990,2.65625,2.671875,146400,2.703125,2.671875,1.9949766397476196
06-03-1990,2.625,2.671875,258400,2.734375,2.734375,2.041642665863037
07-03-1990,2.703125,2.734375,174400,2.75,2.75,2.053309202194214
08-03-1990,2.734375,2.75,146400,2.796875,2.78125,2.0766425132751465
09-03-1990,2.734375,2.75,194400,2.78125,2.734375,2.041642665863037
12-03-1990,2.625,2.703125,1072800,2.71875,2.6875,2.0066425800323486
13-03-1990,2.671875,2.671875,662400,2.6875,2.6875,2.0066425800323486
14-03-1990,2.671875,2.671875,298400,2.765625,2.765625,2.0649757385253906
15-03-1990,2.71875,2.78125,192000,2.796875,2.71875,2.0299761295318604
16-03-1990,2.734375,2.75,271200,2.78125,2.78125,2.0766425132751465
19-03-1990,2.75,2.75,476000,2.765625,2.765625,2.0649757385253906
20-03-1990,2.75,2.75,898400,2.90625,2.796875,2.0883078575134277
21-03-1990,2.796875,2.796875,102400,2.8125,2.796875,2.0883078575134277
22-03-1990,2.75,2.75,177600,2.765625,2.765625,2.0649757385253906
23-03-1990,2.796875,2.796875,320000,2.796875,2.796875,2.0883078575134277
26-03-1990,2.75,2.78125,37600,2.78125,2.75,2.053309202194214
27-03-1990,2.734375,2.734375,24000,2.75,2.75,2.053309202194214
28-03-1990,2.84375,2.84375,706400,2.9375,2.921875,2.181641101837158
29-03-1990,2.890625,2.921875,361600,2.9375,2.90625,2.1699752807617188
30-03-1990,2.921875,2.921875,161600,2.921875,2.921875,2.181641101837158
02-04-1990,2.84375,2.921875,184800,2.921875,2.875,2.146641492843628
03-04-1990,2.875,2.875,358400,3.03125,2.984375,2.228306531906128
04-04-1990,2.90625,2.984375,364800,2.984375,2.90625,2.1699752807617188
05-04-1990,2.90625,2.9375,373600,2.953125,2.90625,2.1699752807617188
06-04-1990,2.78125,2.921875,810400,2.921875,2.78125,2.0766425132751465
09-04-1990,2.734375,2.734375,336800,2.765625,2.734375,2.04624080657959
10-04-1990,2.71875,2.75,426400,2.8125,2.765625,2.069627523422241
11-04-1990,2.71875,2.78125,234400,2.8125,2.734375,2.04624080657959
12-04-1990,2.59375,2.71875,456000,2.734375,2.625,1.964391827583313
16-04-1990,2.640625,2.640625,273600,2.734375,2.703125,2.0228562355041504
17-04-1990,2.703125,2.71875,16800,2.71875,2.71875,2.034548044204712
18-04-1990,2.6875,2.6875,333600,2.75,2.71875,2.034548044204712
19-04-1990,2.671875,2.71875,207200,2.71875,2.6875,2.0111632347106934
20-04-1990,2.65625,2.671875,168800,2.6875,2.671875,1.9994696378707886
23-04-1990,2.625,2.65625,173600,2.65625,2.625,1.964391827583313
24-04-1990,2.625,2.625,458400,2.671875,2.625,1.964391827583313
25-04-1990,2.640625,2.65625,104000,2.671875,2.65625,1.9877783060073853
26-04-1990,2.625,2.625,461600,2.6875,2.6875,2.0111632347106934
27-04-1990,2.6875,2.6875,133600,2.703125,2.703125,2.0228562355041504
30-04-1990,2.6875,2.703125,68800,2.71875,2.71875,2.034548044204712
01-05-1990,2.6875,2.71875,732800,2.828125,2.8125,2.104705810546875
02-05-1990,2.765625,2.78125,575200,2.828125,2.8125,2.104705810546875
03-05-1990,2.828125,2.84375,105600,2.859375,2.828125,2.116398334503174
04-05-1990,2.78125,2.84375,279200,2.84375,2.78125,2.0813190937042236
07-05-1990,2.78125,2.78125,32800,2.84375,2.84375,2.12809157371521
08-05-1990,2.828125,2.84375,48800,2.84375,2.828125,2.116398334503174
09-05-1990,2.796875,2.84375,1232800,2.859375,2.796875,2.0930111408233643
10-05-1990,2.796875,2.8125,428000,2.84375,2.796875,2.0930111408233643
11-05-1990,2.828125,2.828125,172000,2.875,2.875,2.1514768600463867
14-05-1990,2.75,2.890625,2418400,2.890625,2.75,2.0579326152801514
15-05-1990,2.75,2.78125,5804800,2.828125,2.8125,2.104705810546875
16-05-1990,2.8125,2.8125,367200,2.96875,2.90625,2.1748623847961426
17-05-1990,2.921875,2.921875,196000,2.953125,2.953125,2.2099404335021973
18-05-1990,2.96875,2.96875,181600,3.0,3.0,2.2450191974639893
21-05-1990,2.921875,2.96875,74400,2.96875,2.953125,2.2099404335021973
22-05-1990,2.96875,2.984375,40800,2.984375,2.96875,2.2216320037841797
23-05-1990,2.90625,2.96875,30400,2.96875,2.90625,2.1748623847961426
24-05-1990,2.75,2.921875,483200,2.921875,2.8125,2.104705810546875
25-05-1990,2.75,2.8125,817600,2.875,2.875,2.1514768600463867
29-05-1990,2.890625,2.890625,60800,2.90625,2.90625,2.1748623847961426
30-05-1990,2.921875,2.9375,129600,2.984375,2.96875,2.2216320037841797
31-05-1990,2.90625,2.9375,143200,2.984375,2.96875,2.2216320037841797
01-06-1990,2.953125,2.96875,47200,2.984375,2.96875,2.2216320037841797
04-06-1990,2.90625,2.9375,68000,2.984375,2.984375,2.233325958251953
05-06-1990,2.796875,2.984375,1125600,3.0,2.890625,2.1631689071655273
06-06-1990,2.875,2.890625,44000,2.90625,2.875,2.1514768600463867
07-06-1990,2.859375,2.890625,212800,2.890625,2.859375,2.139784336090088
08-06-1990,2.8125,2.875,405600,2.875,2.84375,2.12809157371521
11-06-1990,2.84375,2.859375,48800,2.890625,2.875,2.1514768600463867
12-06-1990,2.859375,2.90625,196000,3.0,2.984375,2.233325958251953
13-06-1990,2.96875,2.96875,208000,3.09375,2.96875,2.2216320037841797
14-06-1990,2.9375,2.953125,20800,2.984375,2.984375,2.233325958251953
15-06-1990,2.921875,2.984375,158400,2.984375,2.96875,2.2216320037841797
18-06-1990,2.96875,2.96875,1600,2.96875,2.96875,2.2216320037841797
19-06-1990,2.875,2.9375,174400,2.9375,2.921875,2.1865546703338623
20-06-1990,2.90625,2.953125,127200,2.953125,2.9375,2.198249101638794
21-06-1990,2.921875,2.921875,6400,2.9375,2.9375,2.198249101638794
22-06-1990,2.921875,2.9375,356800,2.953125,2.953125,2.2099404335021973
25-06-1990,2.90625,2.921875,24800,2.9375,2.921875,2.1865546703338623
26-06-1990,2.859375,2.90625,207200,2.921875,2.921875,2.1865546703338623
27-06-1990,2.921875,2.921875,13600,2.9375,2.921875,2.1865546703338623
28-06-1990,2.9375,2.9375,157600,2.96875,2.96875,2.2216320037841797
29-06-1990,2.953125,2.984375,327200,2.984375,2.96875,2.2216320037841797
02-07-1990,2.875,2.953125,322400,2.953125,2.90625,2.1748623847961426
03-07-1990,2.875,2.9375,308800,2.9375,2.875,2.1514768600463867
05-07-1990,2.8125,2.84375,596800,2.84375,2.828125,2.116398334503174
06-07-1990,2.78125,2.78125,82400,2.796875,2.796875,2.0930111408233643
09-07-1990,2.75,2.796875,724800,2.8125,2.78125,2.0813190937042236
10-07-1990,2.765625,2.78125,1073600,2.78125,2.78125,2.0860064029693604
11-07-1990,2.78125,2.78125,776000,2.8125,2.796875,2.0977258682250977
12-07-1990,2.796875,2.796875,1208800,2.90625,2.875,2.156322717666626
13-07-1990,2.90625,2.90625,568000,3.0,2.96875,2.2266359329223633
16-07-1990,2.96875,2.984375,680800,3.0,2.96875,2.2266359329223633
17-07-1990,2.921875,2.96875,102400,2.96875,2.921875,2.191479206085205
18-07-1990,2.84375,2.921875,348000,2.921875,2.84375,2.1328840255737305
19-07-1990,2.796875,2.8125,465600,2.875,2.875,2.156322717666626
20-07-1990,2.890625,2.890625,51200,2.90625,2.890625,2.168041229248047
23-07-1990,2.859375,2.875,349600,2.9375,2.9375,2.2031993865966797
24-07-1990,2.90625,2.90625,353600,3.015625,2.984375,2.2383553981781006
25-07-1990,3.0,3.015625,52000,3.03125,3.03125,2.2735137939453125
26-07-1990,3.03125,3.0625,80000,3.0625,3.0625,2.29695200920105
27-07-1990,2.984375,3.03125,75200,3.0625,2.984375,2.2383553981781006
30-07-1990,2.984375,3.0,160800,3.0,3.0,2.250074863433838
31-07-1990,2.953125,2.953125,175200,3.015625,3.0,2.250074863433838
01-08-1990,3.0,3.03125,134400,3.0625,3.015625,2.261794090270996
02-08-1990,3.03125,3.125,1056800,3.171875,3.171875,2.378985643386841
03-08-1990,3.109375,3.15625,1272000,3.265625,3.203125,2.402423858642578
06-08-1990,3.125,3.25,247200,3.265625,3.125,2.343827247619629
07-08-1990,3.125,3.125,148800,3.140625,3.140625,2.355548143386841
08-08-1990,3.09375,3.125,170400,3.140625,3.09375,2.3203911781311035
09-08-1990,3.0625,3.09375,296000,3.09375,3.09375,2.3203911781311035
10-08-1990,3.09375,3.09375,299200,3.109375,3.09375,2.3203911781311035
13-08-1990,3.078125,3.109375,56800,3.125,3.078125,2.308670997619629
14-08-1990,3.0625,3.109375,49600,3.109375,3.0625,2.29695200920105
15-08-1990,3.0625,3.0625,196000,3.15625,3.125,2.343827247619629
16-08-1990,3.078125,3.109375,140000,3.125,3.109375,2.3321099281311035
17-08-1990,3.125,3.140625,201600,3.1875,3.140625,2.355548143386841
20-08-1990,3.046875,3.15625,239200,3.15625,3.046875,2.285231828689575
21-08-1990,3.0625,3.0625,452000,3.09375,3.078125,2.308670997619629
22-08-1990,3.015625,3.0625,333600,3.09375,3.015625,2.261794090270996
23-08-1990,2.9375,3.0,364000,3.0,2.96875,2.2266359329223633
24-08-1990,2.921875,2.921875,326400,3.0,3.0,2.250074863433838
27-08-1990,2.953125,3.0,88000,3.0,2.953125,2.214916944503784
28-08-1990,2.953125,2.953125,8000,2.984375,2.984375,2.2383553981781006
29-08-1990,2.9375,3.015625,140800,3.015625,2.9375,2.2031993865966797
30-08-1990,2.90625,2.953125,65600,2.984375,2.984375,2.2383553981781006
31-08-1990,2.890625,2.953125,256800,2.984375,2.921875,2.191479206085205
04-09-1990,2.9375,2.9375,20000,2.953125,2.953125,2.214916944503784
05-09-1990,2.953125,2.953125,223200,3.1875,3.171875,2.378985643386841
06-09-1990,3.1875,3.203125,317600,3.296875,3.296875,2.4727394580841064
07-09-1990,3.296875,3.296875,160800,3.359375,3.359375,2.51961612701416
10-09-1990,3.328125,3.328125,1408800,3.390625,3.359375,2.51961612701416
11-09-1990,3.1875,3.375,963200,3.375,3.3125,2.484457015991211
12-09-1990,3.265625,3.34375,336000,3.34375,3.3125,2.484457015991211
13-09-1990,3.25,3.3125,405600,3.328125,3.25,2.4375808238983154
14-09-1990,3.25,3.25,209600,3.390625,3.390625,2.5430538654327393
17-09-1990,3.375,3.390625,1116000,3.46875,3.46875,2.6016483306884766
18-09-1990,3.46875,3.46875,776800,3.765625,3.671875,2.753998041152954
19-09-1990,3.65625,3.6875,1624800,3.6875,3.65625,2.742279291152954
20-09-1990,3.53125,3.65625,432000,3.65625,3.53125,2.648526430130005
21-09-1990,3.46875,3.484375,521600,3.5625,3.5625,2.6719634532928467
24-09-1990,3.484375,3.5625,112800,3.5625,3.515625,2.636807680130005
25-09-1990,3.5,3.5,221600,3.515625,3.515625,2.636807680130005
26-09-1990,3.453125,3.515625,55200,3.515625,3.46875,2.6016483306884766
27-09-1990,3.375,3.4375,72800,3.453125,3.375,2.531334400177002
28-09-1990,3.28125,3.375,163200,3.375,3.34375,2.507897138595581
01-10-1990,3.296875,3.328125,455200,3.390625,3.34375,2.507897138595581
02-10-1990,3.328125,3.359375,72000,3.359375,3.359375,2.51961612701416
03-10-1990,3.3125,3.34375,26400,3.34375,3.34375,2.507897138595581
04-10-1990,3.25,3.34375,313600,3.34375,3.25,2.4375808238983154
05-10-1990,3.1875,3.234375,550400,3.296875,3.1875,2.390704870223999
08-10-1990,3.1875,3.203125,411200,3.234375,3.1875,2.390704870223999
09-10-1990,3.203125,3.203125,298400,3.375,3.34375,2.5128238201141357
10-10-1990,3.21875,3.34375,200000,3.34375,3.234375,2.4306275844573975
11-10-1990,3.203125,3.25,34400,3.25,3.21875,2.4188857078552246
12-10-1990,3.171875,3.1875,89600,3.203125,3.203125,2.4071431159973145
15-10-1990,3.15625,3.203125,36800,3.203125,3.15625,2.371917486190796
16-10-1990,3.109375,3.140625,153600,3.15625,3.109375,2.336691379547119
17-10-1990,3.09375,3.109375,11200,3.125,3.125,2.348432779312134
18-10-1990,3.109375,3.109375,113600,3.125,3.109375,2.336691379547119
19-10-1990,3.078125,3.109375,36800,3.109375,3.09375,2.3249495029449463
22-10-1990,3.0625,3.109375,68000,3.109375,3.0625,2.301464319229126
23-10-1990,3.0625,3.0625,17600,3.109375,3.109375,2.336691379547119
24-10-1990,3.125,3.125,120000,3.15625,3.15625,2.371917486190796
25-10-1990,3.1875,3.1875,112800,3.328125,3.328125,2.5010809898376465
26-10-1990,3.3125,3.3125,22400,3.359375,3.359375,2.5245659351348877
29-10-1990,3.359375,3.375,16000,3.375,3.359375,2.5245659351348877
30-10-1990,3.28125,3.34375,29600,3.359375,3.296875,2.47759747505188
31-10-1990,3.3125,3.3125,366400,3.453125,3.375,2.5363075733184814
01-11-1990,3.359375,3.375,163200,3.375,3.375,2.5363075733184814
02-11-1990,3.375,3.375,469600,3.53125,3.5,2.6302456855773926
05-11-1990,3.46875,3.53125,426400,3.546875,3.46875,2.606759548187256
06-11-1990,3.421875,3.484375,8800,3.484375,3.421875,2.5715339183807373
07-11-1990,3.375,3.421875,148000,3.421875,3.375,2.5363075733184814
08-11-1990,3.34375,3.34375,37600,3.390625,3.390625,2.5480496883392334
09-11-1990,3.375,3.375,397600,3.4375,3.421875,2.5715339183807373
12-11-1990,3.328125,3.390625,76800,3.390625,3.328125,2.5010809898376465
13-11-1990,3.109375,3.15625,208000,3.15625,3.109375,2.336691379547119
14-11-1990,3.109375,3.125,75200,3.1875,3.1875,2.3954017162323
15-11-1990,3.125,3.15625,45600,3.171875,3.140625,2.3601763248443604
16-11-1990,3.09375,3.140625,300800,3.15625,3.15625,2.371917486190796
19-11-1990,2.984375,3.15625,456800,3.15625,2.984375,2.2427542209625244
20-11-1990,2.84375,2.96875,329600,2.96875,2.921875,2.195784568786621
21-11-1990,2.890625,2.90625,32800,2.96875,2.96875,2.2310099601745605
23-11-1990,2.96875,2.96875,18400,2.984375,2.96875,2.2310099601745605
26-11-1990,2.96875,2.984375,40000,3.0,2.96875,2.2310099601745605
27-11-1990,2.9375,2.984375,39200,2.984375,2.953125,2.219268321990967
28-11-1990,2.90625,2.953125,145600,2.953125,2.921875,2.195784568786621
29-11-1990,2.90625,2.90625,36800,2.90625,2.90625,2.1840429306030273
30-11-1990,2.765625,2.875,236000,2.890625,2.8125,2.1135904788970947
03-12-1990,2.609375,2.796875,366400,2.796875,2.75,2.0666205883026123
04-12-1990,2.671875,2.734375,230400,2.734375,2.71875,2.0431363582611084
05-12-1990,2.71875,2.71875,432000,2.796875,2.78125,2.0901050567626953
06-12-1990,2.734375,2.78125,248800,2.8125,2.75,2.0666205883026123
07-12-1990,2.625,2.71875,257600,2.71875,2.71875,2.0431363582611084
10-12-1990,2.703125,2.734375,179200,2.734375,2.71875,2.0431363582611084
11-12-1990,2.703125,2.703125,981600,2.78125,2.734375,2.054879903793335
12-12-1990,2.734375,2.75,493600,2.78125,2.78125,2.0901050567626953
13-12-1990,2.71875,2.75,908000,2.75,2.71875,2.0431363582611084
14-12-1990,2.65625,2.71875,207200,2.78125,2.78125,2.0901050567626953
17-12-1990,2.734375,2.796875,89600,2.828125,2.734375,2.054879903793335
18-12-1990,2.703125,2.765625,153600,2.796875,2.703125,2.031395196914673
19-12-1990,2.640625,2.703125,277600,2.734375,2.640625,1.9844257831573486
20-12-1990,2.546875,2.609375,1007200,2.609375,2.5625,1.9257147312164307
21-12-1990,2.484375,2.484375,980000,2.515625,2.5,1.8787461519241333
24-12-1990,2.5,2.5,222400,2.546875,2.546875,1.9139732122421265
26-12-1990,2.5625,2.5625,93600,2.75,2.75,2.0666205883026123
27-12-1990,2.71875,2.75,51200,2.75,2.734375,2.054879903793335
28-12-1990,2.65625,2.71875,49600,2.71875,2.65625,1.9961687326431274
31-12-1990,2.53125,2.65625,364800,2.65625,2.65625,1.9961687326431274
02-01-1991,2.59375,2.625,36000,2.625,2.59375,1.9491994380950928
03-01-1991,2.484375,2.59375,413600,2.59375,2.484375,1.8670032024383545
04-01-1991,2.328125,2.4375,216800,2.4375,2.328125,1.7495832443237305
07-01-1991,2.21875,2.296875,599200,2.3125,2.265625,1.702614188194275
08-01-1991,2.15625,2.25,679200,2.265625,2.15625,1.6204193830490112
09-01-1991,2.140625,2.171875,572000,2.1875,2.140625,1.6133530139923096
10-01-1991,2.09375,2.125,296000,2.140625,2.140625,1.6133530139923096
11-01-1991,2.109375,2.109375,278400,2.21875,2.21875,1.6722341775894165
14-01-1991,2.21875,2.234375,172800,2.265625,2.25,1.6957870721817017
15-01-1991,2.171875,2.25,92800,2.25,2.234375,1.6840109825134277
16-01-1991,2.171875,2.234375,50400,2.25,2.203125,1.6604576110839844
17-01-1991,2.03125,2.1875,1341600,2.25,2.203125,1.6604576110839844
18-01-1991,2.15625,2.203125,275200,2.21875,2.1875,1.648681640625
21-01-1991,2.0625,2.15625,550400,2.15625,2.125,1.601576328277588
22-01-1991,2.125,2.15625,174400,2.171875,2.125,1.601576328277588
23-01-1991,2.140625,2.140625,837600,2.265625,2.25,1.6957870721817017
24-01-1991,2.265625,2.3125,495200,2.34375,2.28125,1.7193388938903809
25-01-1991,2.21875,2.3125,817600,2.375,2.25,1.6957870721817017
28-01-1991,2.203125,2.28125,679200,2.296875,2.234375,1.6840109825134277
29-01-1991,2.25,2.25,99200,2.265625,2.25,1.6957870721817017
30-01-1991,2.203125,2.21875,132000,2.25,2.234375,1.6840109825134277
31-01-1991,2.15625,2.21875,384800,2.21875,2.171875,1.6369057893753052
01-02-1991,2.15625,2.15625,869600,2.21875,2.21875,1.6722341775894165
04-02-1991,2.203125,2.21875,961600,2.28125,2.25,1.6957870721817017
05-02-1991,2.25,2.25,1217600,2.375,2.28125,1.7193388938903809
06-02-1991,2.28125,2.28125,1186400,2.5,2.484375,1.8724309206008911
07-02-1991,2.546875,2.546875,1224000,2.78125,2.6875,2.0255231857299805
08-02-1991,2.640625,2.65625,94400,2.6875,2.671875,2.013747215270996
11-02-1991,2.640625,2.6875,307200,2.75,2.703125,2.0373005867004395
12-02-1991,2.59375,2.734375,216000,2.734375,2.59375,1.9548659324645996
13-02-1991,2.625,2.625,45600,2.703125,2.703125,2.0373005867004395
14-02-1991,2.515625,2.6875,148800,2.6875,2.515625,1.8959838151931763
15-02-1991,2.484375,2.484375,356800,2.609375,2.609375,1.9666413068771362
19-02-1991,2.515625,2.59375,160800,2.59375,2.546875,1.919536828994751
20-02-1991,2.515625,2.546875,219200,2.625,2.625,1.9784188270568848
21-02-1991,2.59375,2.609375,188000,2.625,2.59375,1.9548659324645996
22-02-1991,2.453125,2.59375,408000,2.59375,2.453125,1.848879098892212
25-02-1991,2.328125,2.453125,88800,2.453125,2.328125,1.754668951034546
26-02-1991,2.265625,2.3125,776800,2.328125,2.3125,1.7428933382034302
27-02-1991,2.34375,2.34375,1544000,2.453125,2.4375,1.8371025323867798
28-02-1991,2.453125,2.46875,578400,2.59375,2.59375,1.9548659324645996
01-03-1991,2.53125,2.59375,692800,2.59375,2.546875,1.919536828994751
04-03-1991,2.546875,2.546875,555200,2.609375,2.59375,1.9548659324645996
05-03-1991,2.5625,2.5625,418400,2.578125,2.578125,1.9430903196334839
06-03-1991,2.546875,2.546875,180800,2.59375,2.5625,1.9313125610351562
07-03-1991,2.5625,2.5625,280800,2.625,2.625,1.9784188270568848
08-03-1991,2.59375,2.625,442400,2.78125,2.671875,2.013747215270996
11-03-1991,2.6875,2.6875,116000,2.75,2.71875,2.0490760803222656
12-03-1991,2.6875,2.75,163200,2.75,2.6875,2.0255231857299805
13-03-1991,2.59375,2.671875,147200,2.671875,2.59375,1.9548659324645996
14-03-1991,2.546875,2.578125,184000,2.59375,2.5625,1.9313125610351562
15-03-1991,2.546875,2.546875,289600,2.65625,2.625,1.9784188270568848
18-03-1991,2.625,2.640625,136000,2.6875,2.6875,2.0255231857299805
19-03-1991,2.609375,2.65625,172000,2.65625,2.625,1.9784188270568848
20-03-1991,2.625,2.625,71200,2.65625,2.65625,2.001972198486328
21-03-1991,2.65625,2.671875,327200,2.734375,2.734375,2.0608527660369873
22-03-1991,2.703125,2.734375,93600,2.734375,2.703125,2.0373005867004395
25-03-1991,2.640625,2.71875,115200,2.71875,2.703125,2.0373005867004395
26-03-1991,2.625,2.671875,447200,2.6875,2.65625,2.001972198486328
27-03-1991,2.578125,2.640625,86400,2.640625,2.578125,1.9430903196334839
28-03-1991,2.515625,2.578125,70400,2.59375,2.515625,1.8959838151931763
01-04-1991,2.453125,2.53125,128000,2.53125,2.453125,1.848879098892212
02-04-1991,2.359375,2.46875,367200,2.46875,2.375,1.7899974584579468
03-04-1991,2.3125,2.359375,1358400,2.4375,2.3125,1.7428933382034302
04-04-1991,2.34375,2.34375,1049600,2.40625,2.40625,1.8135510683059692
05-04-1991,2.421875,2.421875,73600,2.484375,2.484375,1.8724309206008911
08-04-1991,2.4375,2.46875,24000,2.46875,2.4375,1.8371025323867798
09-04-1991,2.375,2.40625,198400,2.4375,2.4375,1.8371025323867798
10-04-1991,2.34375,2.421875,198400,2.421875,2.390625,1.8064067363739014
11-04-1991,2.359375,2.40625,255200,2.4375,2.40625,1.8182111978530884
12-04-1991,2.390625,2.40625,398400,2.46875,2.46875,1.8654392957687378
15-04-1991,2.5,2.5,258400,2.5625,2.546875,1.9244714975357056
16-04-1991,2.53125,2.53125,468000,2.640625,2.625,1.9835034608840942
17-04-1991,2.578125,2.640625,662400,2.640625,2.578125,1.9480847120285034
18-04-1991,2.609375,2.609375,68800,2.640625,2.625,1.9835034608840942
19-04-1991,2.5625,2.609375,20000,2.625,2.578125,1.9480847120285034
22-04-1991,2.484375,2.578125,263200,2.578125,2.5,1.8890515565872192
23-04-1991,2.453125,2.484375,69600,2.5,2.5,1.8890515565872192
24-04-1991,2.46875,2.5,44800,2.5,2.5,1.8890515565872192
25-04-1991,2.46875,2.484375,70400,2.484375,2.46875,1.8654392957687378
26-04-1991,2.421875,2.453125,24000,2.453125,2.4375,1.8418251276016235
29-04-1991,2.34375,2.421875,373600,2.421875,2.34375,1.7709846496582031
30-04-1991,2.328125,2.375,1024800,2.375,2.375,1.7945996522903442
01-05-1991,2.34375,2.375,403200,2.421875,2.421875,1.8300189971923828
02-05-1991,2.375,2.40625,714400,2.40625,2.375,1.7945996522903442
03-05-1991,2.359375,2.40625,464000,2.4375,2.390625,1.8064067363739014
06-05-1991,2.359375,2.375,11200,2.375,2.359375,1.7827928066253662
07-05-1991,2.28125,2.375,360800,2.375,2.34375,1.7709846496582031
08-05-1991,2.328125,2.34375,567200,2.453125,2.4375,1.8418251276016235
09-05-1991,2.40625,2.453125,150400,2.46875,2.46875,1.8654392957687378
10-05-1991,2.375,2.453125,88800,2.453125,2.375,1.7945996522903442
13-05-1991,2.28125,2.359375,872000,2.359375,2.28125,1.7237591743469238
14-05-1991,2.28125,2.28125,366400,2.375,2.3125,1.7473726272583008
15-05-1991,2.3125,2.3125,276000,2.40625,2.390625,1.8064067363739014
16-05-1991,2.421875,2.453125,404000,2.46875,2.421875,1.8300189971923828
17-05-1991,2.390625,2.421875,25600,2.421875,2.40625,1.8182111978530884
20-05-1991,2.390625,2.40625,121600,2.4375,2.40625,1.8182111978530884
21-05-1991,2.34375,2.4375,480800,2.4375,2.375,1.7945996522903442
22-05-1991,2.375,2.375,31200,2.390625,2.390625,1.8064067363739014
23-05-1991,2.375,2.40625,240800,2.421875,2.40625,1.8182111978530884
24-05-1991,2.375,2.421875,160800,2.453125,2.390625,1.8064067363739014
28-05-1991,2.375,2.375,60000,2.453125,2.4375,1.8418251276016235
29-05-1991,2.421875,2.4375,334400,2.4375,2.4375,1.8418251276016235
30-05-1991,2.421875,2.4375,521600,2.5,2.5,1.8890515565872192
31-05-1991,2.53125,2.53125,1612000,2.625,2.625,1.9835034608840942
03-06-1991,2.609375,2.65625,256000,2.6875,2.625,1.9835034608840942
04-06-1991,2.625,2.65625,1272800,2.671875,2.625,1.9835034608840942
05-06-1991,2.578125,2.625,141600,2.625,2.578125,1.9480847120285034
06-06-1991,2.5625,2.5625,201600,2.609375,2.59375,1.9598915576934814
07-06-1991,2.53125,2.59375,473600,2.59375,2.53125,1.9126640558242798
10-06-1991,2.53125,2.546875,168000,2.5625,2.53125,1.9126640558242798
11-06-1991,2.4375,2.53125,155200,2.53125,2.5,1.8890515565872192
12-06-1991,2.484375,2.5,51200,2.5,2.5,1.8890515565872192
13-06-1991,2.484375,2.5,1600,2.5,2.484375,1.8772448301315308
14-06-1991,2.46875,2.46875,83200,2.46875,2.46875,1.8654392957687378
17-06-1991,2.453125,2.46875,21600,2.46875,2.453125,1.853631615638733
18-06-1991,2.4375,2.46875,341600,2.46875,2.46875,1.8654392957687378
19-06-1991,2.46875,2.46875,170400,2.5,2.5,1.8890515565872192
20-06-1991,2.375,2.4375,30400,2.4375,2.375,1.7945996522903442
21-06-1991,2.3125,2.34375,251200,2.375,2.34375,1.7709846496582031
24-06-1991,2.3125,2.359375,124800,2.375,2.375,1.7945996522903442
25-06-1991,2.359375,2.375,39200,2.375,2.359375,1.7827928066253662
26-06-1991,2.296875,2.328125,188000,2.359375,2.3125,1.7473726272583008
27-06-1991,2.28125,2.3125,260800,2.34375,2.3125,1.7473726272583008
28-06-1991,2.25,2.3125,418400,2.3125,2.25,1.7001464366912842
01-07-1991,2.203125,2.25,188800,2.25,2.203125,1.6647266149520874
02-07-1991,2.21875,2.21875,127200,2.25,2.234375,1.6883398294448853
03-07-1991,2.203125,2.203125,267200,2.28125,2.25,1.7001464366912842
05-07-1991,2.25,2.25,3200,2.25,2.25,1.7001464366912842
08-07-1991,2.25,2.25,192800,2.296875,2.296875,1.73556649684906
09-07-1991,2.234375,2.28125,359200,2.3125,2.265625,1.7166234254837036
10-07-1991,2.234375,2.25,56000,2.25,2.234375,1.6929465532302856
11-07-1991,2.25,2.25,152800,2.328125,2.3125,1.7521402835845947
12-07-1991,2.28125,2.34375,1025600,2.359375,2.296875,1.7403016090393066
15-07-1991,2.328125,2.328125,791200,2.375,2.375,1.7994965314865112
16-07-1991,2.34375,2.359375,1204800,2.421875,2.421875,1.8350123167037964
17-07-1991,2.4375,2.453125,1052000,2.59375,2.59375,1.9652390480041504
18-07-1991,2.625,2.625,304800,2.671875,2.671875,2.024432897567749
19-07-1991,2.609375,2.671875,73600,2.671875,2.625,1.9889158010482788
22-07-1991,2.5625,2.625,72000,2.625,2.59375,1.9652390480041504
23-07-1991,2.578125,2.609375,124000,2.625,2.578125,1.9534001350402832
24-07-1991,2.578125,2.578125,39200,2.59375,2.578125,1.9534001350402832
25-07-1991,2.5625,2.5625,232800,2.578125,2.5625,1.9415606260299683
26-07-1991,2.5625,2.5625,226400,2.59375,2.59375,1.9652390480041504
29-07-1991,2.59375,2.609375,6400,2.609375,2.609375,1.9770771265029907
30-07-1991,2.59375,2.59375,582400,2.65625,2.625,1.9889158010482788
31-07-1991,2.53125,2.5625,698400,2.578125,2.53125,1.9178825616836548
01-08-1991,2.53125,2.53125,248800,2.578125,2.5625,1.9415606260299683
02-08-1991,2.546875,2.546875,71200,2.546875,2.546875,1.9297224283218384
05-08-1991,2.546875,2.5625,96800,2.578125,2.5625,1.9415606260299683
06-08-1991,2.5625,2.5625,457600,2.625,2.59375,1.9652390480041504
07-08-1991,2.59375,2.59375,733600,2.625,2.625,1.9889158010482788
08-08-1991,2.625,2.640625,413600,2.6875,2.640625,2.000755548477173
09-08-1991,2.625,2.625,111200,2.65625,2.65625,2.0125925540924072
12-08-1991,2.640625,2.6875,223200,2.703125,2.65625,2.0125925540924072
13-08-1991,2.640625,2.640625,118400,2.6875,2.6875,2.036271810531616
14-08-1991,2.671875,2.671875,372000,2.75,2.75,2.0836265087127686
15-08-1991,2.71875,2.75,369600,2.75,2.75,2.0836265087127686
16-08-1991,2.703125,2.734375,490400,2.734375,2.703125,2.0481109619140625
19-08-1991,2.609375,2.671875,91200,2.671875,2.609375,1.9770771265029907
20-08-1991,2.609375,2.609375,22400,2.625,2.625,1.9889158010482788
21-08-1991,2.609375,2.625,78400,2.625,2.625,1.9889158010482788
22-08-1991,2.5625,2.640625,292800,2.640625,2.59375,1.9652390480041504
23-08-1991,2.59375,2.59375,1125600,2.75,2.75,2.0836265087127686
26-08-1991,2.734375,2.75,183200,2.78125,2.75,2.0836265087127686
27-08-1991,2.75,2.75,362400,2.84375,2.8125,2.1309814453125
28-08-1991,2.828125,2.84375,203200,2.953125,2.9375,2.225691556930542
29-08-1991,2.921875,2.921875,416800,3.0,2.953125,2.2375309467315674
30-08-1991,2.90625,2.96875,236800,2.96875,2.921875,2.213852882385254
03-09-1991,2.78125,2.890625,230400,2.890625,2.78125,2.1073036193847656
04-09-1991,2.75,2.765625,175200,2.8125,2.765625,2.095465660095215
05-09-1991,2.796875,2.796875,309600,2.828125,2.8125,2.1309814453125
06-09-1991,2.78125,2.8125,55200,2.828125,2.828125,2.142820119857788
09-09-1991,2.8125,2.8125,8000,2.84375,2.84375,2.154658555984497
10-09-1991,2.8125,2.828125,452800,2.84375,2.84375,2.154658555984497
11-09-1991,2.8125,2.828125,145600,2.84375,2.84375,2.154658555984497
12-09-1991,2.84375,2.859375,48000,2.859375,2.84375,2.154658555984497
13-09-1991,2.828125,2.875,366400,2.875,2.84375,2.154658555984497
16-09-1991,2.828125,2.859375,433600,2.859375,2.84375,2.154658555984497
17-09-1991,2.84375,2.84375,648800,2.890625,2.890625,2.190176010131836
18-09-1991,2.90625,2.90625,136800,2.9375,2.9375,2.225691556930542
19-09-1991,2.921875,2.953125,153600,3.03125,3.03125,2.296724319458008
20-09-1991,3.0,3.078125,312000,3.078125,3.03125,2.296724319458008
23-09-1991,2.96875,3.0625,113600,3.0625,2.96875,2.249370813369751
24-09-1991,2.875,2.96875,77600,2.96875,2.875,2.1783368587493896
25-09-1991,2.875,2.890625,7200,2.890625,2.875,2.1783368587493896
26-09-1991,2.875,2.90625,296000,2.953125,2.953125,2.2375309467315674
27-09-1991,2.953125,2.96875,70400,3.0,2.96875,2.249370813369751
30-09-1991,2.953125,2.953125,229600,2.984375,2.984375,2.2612075805664062
01-10-1991,2.859375,2.984375,1317600,3.0,2.859375,2.166498899459839
02-10-1991,2.84375,2.84375,740800,2.9375,2.90625,2.202014684677124
03-10-1991,2.890625,2.90625,106400,2.90625,2.890625,2.190176010131836
04-10-1991,2.859375,2.875,599200,2.890625,2.890625,2.190176010131836
07-10-1991,2.859375,2.875,973600,2.9375,2.9375,2.225691556930542
08-10-1991,2.90625,2.9375,735200,2.953125,2.9375,2.2304370403289795
09-10-1991,2.90625,2.9375,43200,2.9375,2.90625,2.206709384918213
10-10-1991,2.875,2.90625,144000,2.921875,2.90625,2.206709384918213
11-10-1991,2.90625,2.921875,23200,2.921875,2.921875,2.2185730934143066
14-10-1991,2.9375,2.9375,32000,2.984375,2.96875,2.254166841506958
15-10-1991,2.984375,2.984375,181600,3.015625,3.015625,2.2897579669952393
16-10-1991,3.0,3.046875,104000,3.078125,3.0,2.2778944969177246
17-10-1991,2.984375,3.0,89600,3.03125,3.03125,2.301622152328491
18-10-1991,3.0,3.046875,87200,3.046875,3.0,2.2778944969177246
21-10-1991,2.984375,2.984375,3200,2.984375,2.984375,2.266028881072998
22-10-1991,2.875,2.953125,495200,2.953125,2.875,2.1829817295074463
23-10-1991,2.890625,2.953125,95200,2.953125,2.890625,2.194845676422119
24-10-1991,2.84375,2.875,35200,2.875,2.84375,2.159252643585205
25-10-1991,2.75,2.8125,277600,2.8125,2.765625,2.099933385848999
28-10-1991,2.75,2.75,181600,2.84375,2.84375,2.159252643585205
29-10-1991,2.75,2.859375,404800,2.859375,2.765625,2.099933385848999
30-10-1991,2.78125,2.78125,12800,2.796875,2.796875,2.1236610412597656
31-10-1991,2.796875,2.8125,37600,2.84375,2.84375,2.159252643585205
01-11-1991,2.84375,2.859375,62400,2.9375,2.9375,2.2304370403289795
04-11-1991,2.921875,2.921875,624800,3.078125,3.03125,2.301622152328491
05-11-1991,3.046875,3.046875,421600,3.140625,3.109375,2.360943078994751
06-11-1991,3.03125,3.140625,228000,3.140625,3.03125,2.301622152328491
07-11-1991,3.0,3.046875,206400,3.046875,3.03125,2.301622152328491
08-11-1991,3.015625,3.015625,96800,3.0625,3.0625,2.3253493309020996
11-11-1991,3.03125,3.0625,20000,3.0625,3.03125,2.301622152328491
12-11-1991,3.0,3.0,71200,3.046875,3.03125,2.301622152328491
13-11-1991,3.03125,3.03125,127200,3.140625,3.125,2.3728067874908447
14-11-1991,3.015625,3.125,102400,3.125,3.03125,2.301622152328491
15-11-1991,2.890625,3.015625,141600,3.015625,2.9375,2.2304370403289795
18-11-1991,2.875,2.9375,236800,2.9375,2.875,2.1829817295074463
19-11-1991,2.8125,2.890625,143200,2.890625,2.8125,2.1355247497558594
20-11-1991,2.78125,2.796875,144000,2.796875,2.78125,2.1117968559265137
21-11-1991,2.78125,2.78125,202400,2.84375,2.796875,2.1236610412597656
22-11-1991,2.75,2.78125,97600,2.78125,2.75,2.0880696773529053
25-11-1991,2.75,2.75,16800,2.765625,2.765625,2.099933385848999
26-11-1991,2.609375,2.75,346400,2.75,2.625,1.9931564331054688
27-11-1991,2.625,2.640625,76800,2.65625,2.625,1.9931564331054688
29-11-1991,2.640625,2.640625,28800,2.65625,2.65625,2.016883611679077
02-12-1991,2.59375,2.65625,299200,2.671875,2.59375,1.9694290161132812
03-12-1991,2.59375,2.59375,97600,2.65625,2.65625,2.016883611679077
04-12-1991,2.625,2.65625,20800,2.65625,2.625,1.9931564331054688
05-12-1991,2.625,2.625,96800,2.6875,2.640625,2.005021333694458
06-12-1991,2.640625,2.640625,858400,2.65625,2.640625,2.005021333694458
09-12-1991,2.59375,2.625,57600,2.625,2.59375,1.9694290161132812
10-12-1991,2.484375,2.5625,171200,2.5625,2.5,1.8982443809509277
11-12-1991,2.453125,2.515625,415200,2.5625,2.546875,1.9338366985321045
12-12-1991,2.515625,2.515625,124000,2.53125,2.53125,1.9219722747802734
13-12-1991,2.5,2.53125,319200,2.53125,2.5,1.8982443809509277
16-12-1991,2.484375,2.5,372800,2.515625,2.515625,1.910108208656311
17-12-1991,2.515625,2.515625,683200,2.53125,2.53125,1.9219722747802734
18-12-1991,2.546875,2.546875,112800,2.578125,2.578125,1.9575649499893188
19-12-1991,2.53125,2.5625,392800,2.5625,2.546875,1.9338366985321045
20-12-1991,2.5,2.53125,164800,2.53125,2.515625,1.910108208656311
23-12-1991,2.421875,2.5,1115200,2.5,2.421875,1.8389248847961426
24-12-1991,2.40625,2.421875,107200,2.515625,2.515625,1.910108208656311
26-12-1991,2.5,2.5,15200,2.515625,2.5,1.8982443809509277
27-12-1991,2.46875,2.5,48000,2.5,2.46875,1.8745173215866089
30-12-1991,2.421875,2.46875,920800,2.46875,2.4375,1.850788950920105
31-12-1991,2.421875,2.4375,116000,2.484375,2.4375,1.850788950920105
02-01-1992,2.390625,2.421875,732000,2.421875,2.390625,1.8151978254318237
03-01-1992,2.375,2.390625,277600,2.390625,2.375,1.803333044052124
06-01-1992,2.3125,2.390625,528000,2.390625,2.328125,1.7677407264709473
07-01-1992,2.140625,2.3125,584000,2.3125,2.140625,1.625372290611267
08-01-1992,2.109375,2.125,692800,2.203125,2.125,1.613507866859436
09-01-1992,2.109375,2.125,348000,2.171875,2.171875,1.6491010189056396
10-01-1992,2.140625,2.15625,840800,2.234375,2.234375,1.6965562105178833
13-01-1992,2.234375,2.234375,456000,2.328125,2.296875,1.744012475013733
14-01-1992,2.21875,2.296875,281600,2.3125,2.21875,1.6846916675567627
15-01-1992,2.234375,2.234375,377600,2.296875,2.28125,1.732148289680481
16-01-1992,2.28125,2.28125,80800,2.328125,2.328125,1.7677407264709473
17-01-1992,2.359375,2.359375,47200,2.421875,2.421875,1.8389248847961426
20-01-1992,2.421875,2.421875,91200,2.53125,2.515625,1.910108208656311
21-01-1992,2.515625,2.53125,578400,2.546875,2.515625,1.910108208656311
22-01-1992,2.484375,2.515625,300000,2.515625,2.484375,1.8863816261291504
23-01-1992,2.453125,2.46875,313600,2.5,2.453125,1.8626526594161987
24-01-1992,2.3125,2.453125,1104800,2.453125,2.3125,1.7558761835098267
27-01-1992,2.25,2.296875,292800,2.296875,2.265625,1.7202835083007812
28-01-1992,2.1875,2.265625,2736800,2.265625,2.1875,1.6609647274017334
29-01-1992,2.15625,2.203125,463200,2.25,2.203125,1.6728274822235107
30-01-1992,2.140625,2.140625,405600,2.21875,2.1875,1.6609647274017334
31-01-1992,2.1875,2.203125,714400,2.296875,2.25,1.7084201574325562
03-02-1992,2.21875,2.265625,96800,2.265625,2.234375,1.6965562105178833
04-02-1992,2.1875,2.21875,355200,2.234375,2.203125,1.6728274822235107
05-02-1992,2.15625,2.203125,604000,2.203125,2.171875,1.6491010189056396
06-02-1992,2.09375,2.1875,492800,2.1875,2.09375,1.5897802114486694
07-02-1992,2.078125,2.078125,704000,2.21875,2.21875,1.6846916675567627
10-02-1992,2.234375,2.234375,782400,2.34375,2.328125,1.7677407264709473
11-02-1992,2.3125,2.328125,241600,2.34375,2.3125,1.7558761835098267
12-02-1992,2.28125,2.3125,446400,2.328125,2.3125,1.7558761835098267
13-02-1992,2.296875,2.3125,161600,2.3125,2.296875,1.744012475013733
14-02-1992,2.28125,2.296875,190400,2.328125,2.328125,1.7677407264709473
18-02-1992,2.28125,2.3125,504800,2.3125,2.296875,1.744012475013733
19-02-1992,2.265625,2.28125,20800,2.28125,2.265625,1.7202835083007812
20-02-1992,2.265625,2.265625,260800,2.296875,2.296875,1.744012475013733
21-02-1992,2.296875,2.296875,311200,2.328125,2.3125,1.7558761835098267
24-02-1992,2.3125,2.328125,249600,2.34375,2.3125,1.7558761835098267
25-02-1992,2.28125,2.3125,144000,2.3125,2.28125,1.732148289680481
26-02-1992,2.25,2.265625,835200,2.265625,2.265625,1.7202835083007812
27-02-1992,2.25,2.25,67200,2.296875,2.265625,1.7202835083007812
28-02-1992,2.234375,2.234375,321600,2.265625,2.234375,1.6965562105178833
02-03-1992,2.25,2.25,588800,2.296875,2.25,1.7084201574325562
03-03-1992,2.25,2.265625,608800,2.28125,2.25,1.7084201574325562
04-03-1992,2.234375,2.234375,488000,2.25,2.25,1.7084201574325562
05-03-1992,2.265625,2.265625,607200,2.28125,2.28125,1.732148289680481
06-03-1992,2.28125,2.28125,404800,2.296875,2.28125,1.732148289680481
09-03-1992,2.28125,2.28125,348000,2.328125,2.328125,1.7677407264709473
10-03-1992,2.328125,2.328125,348000,2.40625,2.390625,1.8151978254318237
11-03-1992,2.390625,2.40625,376000,2.40625,2.40625,1.8270597457885742
12-03-1992,2.40625,2.4375,347200,2.4375,2.40625,1.8270597457885742
13-03-1992,2.421875,2.4375,138400,2.46875,2.46875,1.8745173215866089
16-03-1992,2.40625,2.5,122400,2.5,2.40625,1.8270597457885742
17-03-1992,2.421875,2.4375,569600,2.4375,2.4375,1.850788950920105
18-03-1992,2.40625,2.421875,46400,2.421875,2.40625,1.8270597457885742
19-03-1992,2.375,2.4375,394400,2.4375,2.40625,1.8270597457885742
20-03-1992,2.453125,2.46875,232000,2.484375,2.46875,1.8745173215866089
23-03-1992,2.5,2.5,545600,2.546875,2.5,1.8982443809509277
24-03-1992,2.5,2.5,618400,2.578125,2.5625,1.9457002878189087
25-03-1992,2.5625,2.578125,116800,2.578125,2.578125,1.9575649499893188
26-03-1992,2.609375,2.609375,959200,2.734375,2.6875,2.0406136512756348
27-03-1992,2.609375,2.625,236800,2.65625,2.625,1.9931564331054688
30-03-1992,2.609375,2.625,324800,2.625,2.625,1.9931564331054688
31-03-1992,2.640625,2.640625,307200,2.65625,2.65625,2.016883611679077
01-04-1992,2.609375,2.65625,172800,2.65625,2.609375,1.981292486190796
02-04-1992,2.578125,2.609375,878400,2.609375,2.59375,1.9694290161132812
03-04-1992,2.546875,2.5625,109600,2.5625,2.5625,1.9457002878189087
06-04-1992,2.578125,2.578125,336000,2.734375,2.734375,2.076205015182495
07-04-1992,2.6875,2.734375,612000,2.734375,2.6875,2.0406136512756348
08-04-1992,2.625,2.671875,771200,2.671875,2.625,1.9931564331054688
09-04-1992,2.609375,2.609375,170400,2.75,2.75,2.093052864074707
10-04-1992,2.734375,2.734375,213600,2.75,2.734375,2.081160545349121
13-04-1992,2.75,2.765625,141600,2.78125,2.765625,2.104945421218872
14-04-1992,2.78125,2.78125,228000,2.8125,2.8125,2.1406214237213135
15-04-1992,2.8125,2.8125,312000,2.828125,2.828125,2.1525142192840576
16-04-1992,2.8125,2.8125,39200,2.828125,2.8125,2.1406214237213135
20-04-1992,2.8125,2.8125,245600,2.890625,2.890625,2.2000842094421387
21-04-1992,2.875,2.921875,337600,2.921875,2.90625,2.2119762897491455
22-04-1992,2.875,2.890625,8800,2.890625,2.875,2.1881918907165527
23-04-1992,2.84375,2.875,1366400,2.984375,2.875,2.1881918907165527
24-04-1992,3.0,3.03125,687200,3.171875,3.0,2.2833311557769775
27-04-1992,3.03125,3.0625,511200,3.09375,3.046875,2.319007396697998
28-04-1992,3.015625,3.046875,234400,3.046875,3.03125,2.307115077972412
29-04-1992,3.03125,3.046875,237600,3.046875,3.03125,2.307115077972412
30-04-1992,3.03125,3.046875,1008800,3.0625,3.046875,2.319007396697998
01-05-1992,3.03125,3.03125,146400,3.046875,3.046875,2.319007396697998
04-05-1992,3.0625,3.0625,251200,3.078125,3.0625,2.3308990001678467
05-05-1992,3.046875,3.046875,532000,3.078125,3.078125,2.3427915573120117
06-05-1992,3.015625,3.078125,792800,3.078125,3.015625,2.2952229976654053
07-05-1992,2.96875,3.015625,61600,3.015625,2.96875,2.2595465183258057
08-05-1992,2.9375,3.0,42400,3.0,2.953125,2.2476532459259033
11-05-1992,2.90625,2.953125,91200,2.953125,2.90625,2.2119762897491455
12-05-1992,2.75,2.921875,1191200,2.921875,2.796875,2.1287295818328857
13-05-1992,2.765625,2.796875,261600,2.796875,2.765625,2.104945421218872
14-05-1992,2.6875,2.765625,1236800,2.84375,2.84375,2.1644058227539062
15-05-1992,2.8125,2.828125,509600,2.90625,2.890625,2.2000842094421387
18-05-1992,2.90625,2.90625,431200,3.015625,3.0,2.2833311557769775
19-05-1992,2.953125,3.0,572000,3.046875,3.046875,2.319007396697998
20-05-1992,3.0625,3.0625,200800,3.09375,3.09375,2.354684352874756
21-05-1992,3.078125,3.078125,946400,3.15625,3.09375,2.354684352874756
22-05-1992,3.078125,3.09375,230400,3.15625,3.140625,2.3903610706329346
26-05-1992,3.125,3.140625,1300800,3.1875,3.1875,2.4260387420654297
27-05-1992,3.125,3.203125,1122400,3.25,3.125,2.378469705581665
28-05-1992,3.078125,3.140625,627200,3.140625,3.125,2.378469705581665
29-05-1992,3.078125,3.125,368800,3.125,3.09375,2.354684352874756
01-06-1992,3.078125,3.078125,348800,3.171875,3.171875,2.414147138595581
02-06-1992,3.125,3.140625,108000,3.15625,3.140625,2.3903610706329346
03-06-1992,3.125,3.15625,1278400,3.1875,3.15625,2.4022536277770996
04-06-1992,3.125,3.125,1169600,3.140625,3.140625,2.3903610706329346
05-06-1992,3.140625,3.15625,816800,3.1875,3.1875,2.4260387420654297
08-06-1992,3.21875,3.21875,1822400,3.375,3.3125,2.521176338195801
09-06-1992,3.28125,3.3125,2077600,3.34375,3.3125,2.521176338195801
10-06-1992,3.21875,3.3125,778400,3.3125,3.28125,2.49739146232605
11-06-1992,3.28125,3.28125,438400,3.40625,3.40625,2.5925328731536865
12-06-1992,3.34375,3.375,2042400,3.375,3.34375,2.54496169090271
15-06-1992,3.296875,3.328125,2438400,3.328125,3.3125,2.521176338195801
16-06-1992,3.296875,3.328125,660800,3.328125,3.296875,2.5092849731445312
17-06-1992,3.21875,3.3125,673600,3.3125,3.234375,2.4617154598236084
18-06-1992,3.21875,3.21875,948800,3.265625,3.234375,2.4617154598236084
19-06-1992,3.234375,3.25,417600,3.265625,3.234375,2.4617154598236084
22-06-1992,3.203125,3.203125,568000,3.21875,3.203125,2.437929630279541
23-06-1992,3.203125,3.203125,518400,3.21875,3.203125,2.437929630279541
24-06-1992,3.171875,3.21875,224000,3.21875,3.21875,2.4498233795166016
25-06-1992,3.125,3.21875,307200,3.21875,3.125,2.378469705581665
26-06-1992,3.109375,3.125,629600,3.140625,3.140625,2.3903610706329346
29-06-1992,3.125,3.125,1169600,3.1875,3.171875,2.414147138595581
30-06-1992,3.15625,3.1875,1156800,3.1875,3.1875,2.4260387420654297
01-07-1992,3.203125,3.21875,694400,3.25,3.25,2.47360897064209
02-07-1992,3.25,3.28125,2007200,3.296875,3.28125,2.49739146232605
06-07-1992,3.296875,3.3125,771200,3.328125,3.3125,2.521176338195801
07-07-1992,3.3125,3.3125,655200,3.359375,3.328125,2.533069372177124
08-07-1992,3.3125,3.328125,480800,3.34375,3.328125,2.533069372177124
09-07-1992,3.328125,3.34375,424000,3.375,3.359375,2.5616650581359863
10-07-1992,3.328125,3.390625,568800,3.390625,3.328125,2.5378355979919434
13-07-1992,3.328125,3.328125,624800,3.359375,3.359375,2.5616650581359863
14-07-1992,3.390625,3.390625,627200,3.625,3.578125,2.728471040725708
15-07-1992,3.515625,3.59375,465600,3.609375,3.53125,2.6927263736724854
16-07-1992,3.390625,3.5,143200,3.5,3.421875,2.6093227863311768
17-07-1992,3.421875,3.4375,45600,3.453125,3.4375,2.621239185333252
20-07-1992,3.390625,3.4375,645600,3.453125,3.390625,2.585493564605713
21-07-1992,3.390625,3.390625,224000,3.421875,3.40625,2.597409248352051
22-07-1992,3.40625,3.40625,235200,3.484375,3.484375,2.6569831371307373
23-07-1992,3.46875,3.5,112000,3.515625,3.5,2.6688995361328125
24-07-1992,3.5,3.5,329600,3.609375,3.609375,2.7523000240325928
27-07-1992,3.5625,3.609375,66400,3.609375,3.59375,2.7403855323791504
28-07-1992,3.53125,3.59375,91200,3.59375,3.5625,2.716555595397949
29-07-1992,3.546875,3.5625,84800,3.578125,3.578125,2.728471040725708
30-07-1992,3.5625,3.5625,565600,3.640625,3.640625,2.7761294841766357
31-07-1992,3.625,3.640625,500800,3.65625,3.640625,2.7761294841766357
03-08-1992,3.625,3.625,492000,3.703125,3.703125,2.8237884044647217
04-08-1992,3.6875,3.6875,398400,3.71875,3.71875,2.8357033729553223
05-08-1992,3.375,3.59375,268800,3.59375,3.40625,2.597409248352051
06-08-1992,3.171875,3.25,1166400,3.265625,3.25,2.478261709213257
07-08-1992,3.25,3.25,996000,3.515625,3.515625,2.680812358856201
10-08-1992,3.5,3.515625,88000,3.5625,3.546875,2.7046425342559814
11-08-1992,3.546875,3.546875,2608000,3.5625,3.546875,2.7046425342559814
12-08-1992,3.5625,3.5625,92800,3.59375,3.59375,2.7403855323791504
13-08-1992,3.609375,3.625,684800,3.734375,3.734375,2.8476171493530273
14-08-1992,3.734375,3.78125,1344000,3.84375,3.75,2.8595333099365234
17-08-1992,3.671875,3.71875,1498400,3.71875,3.6875,2.8118741512298584
18-08-1992,3.578125,3.671875,823200,3.6875,3.59375,2.7403855323791504
19-08-1992,3.5,3.5,844800,3.6875,3.5625,2.716555595397949
20-08-1992,3.5625,3.625,7611200,3.640625,3.59375,2.7403855323791504
21-08-1992,3.59375,3.609375,1631200,3.640625,3.59375,2.7403855323791504
24-08-1992,3.578125,3.578125,1412000,3.609375,3.578125,2.728471040725708
25-08-1992,3.578125,3.578125,1002400,3.71875,3.671875,2.7999603748321533
26-08-1992,3.6875,3.6875,1988000,3.75,3.75,2.8595333099365234
27-08-1992,3.71875,3.734375,872800,3.796875,3.78125,2.883361577987671
28-08-1992,3.8125,3.8125,1732800,3.9375,3.9375,3.0025088787078857
31-08-1992,3.84375,3.90625,1392800,3.984375,3.875,2.954850196838379
01-09-1992,3.859375,3.875,740000,3.9375,3.90625,2.9786810874938965
02-09-1992,3.875,3.9375,458400,3.953125,3.890625,2.966766357421875
03-09-1992,3.890625,3.90625,617600,3.921875,3.921875,2.990593194961548
04-09-1992,3.921875,3.921875,190400,3.96875,3.953125,3.0144259929656982
08-09-1992,3.953125,3.953125,1150400,4.09375,4.078125,3.1097428798675537
09-09-1992,4.0625,4.078125,660000,4.09375,4.09375,3.1216559410095215
10-09-1992,4.0625,4.09375,809600,4.109375,4.078125,3.1097428798675537
11-09-1992,4.0625,4.078125,549600,4.109375,4.109375,3.1335723400115967
14-09-1992,4.109375,4.140625,684000,4.171875,4.125,3.14548659324646
15-09-1992,4.109375,4.125,557600,4.140625,4.109375,3.1335723400115967
16-09-1992,4.09375,4.109375,723200,4.171875,4.125,3.14548659324646
17-09-1992,4.125,4.125,565600,4.28125,4.21875,3.2169740200042725
18-09-1992,4.1875,4.1875,668000,4.3125,4.3125,3.2884626388549805
21-09-1992,4.328125,4.328125,808000,4.34375,4.34375,3.312290906906128
22-09-1992,4.296875,4.3125,662400,4.375,4.359375,3.324207305908203
23-09-1992,4.359375,4.375,898400,4.46875,4.375,3.3361237049102783
24-09-1992,4.390625,4.390625,1256800,4.484375,4.46875,3.4076099395751953
25-09-1992,4.203125,4.421875,1837600,4.4375,4.25,3.2408037185668945
28-09-1992,4.109375,4.25,1749600,4.25,4.125,3.14548659324646
29-09-1992,4.171875,4.203125,276800,4.234375,4.234375,3.2288906574249268
30-09-1992,4.15625,4.21875,330400,4.234375,4.15625,3.169316053390503
01-10-1992,4.03125,4.140625,378400,4.140625,4.03125,3.0739974975585938
02-10-1992,4.015625,4.046875,772800,4.078125,4.046875,3.085911512374878
05-10-1992,3.953125,4.046875,312000,4.046875,3.96875,3.0263378620147705
06-10-1992,3.90625,3.96875,885600,3.96875,3.9375,3.0025088787078857
07-10-1992,3.953125,3.953125,649600,4.015625,3.984375,3.0382535457611084
08-10-1992,3.96875,3.96875,266400,4.0625,4.0,3.0549609661102295
09-10-1992,3.90625,3.96875,112000,4.03125,3.9375,3.0072269439697266
12-10-1992,3.9375,3.9375,351200,3.953125,3.953125,3.0191597938537598
13-10-1992,3.890625,3.9375,412000,3.953125,3.9375,3.0072269439697266
14-10-1992,3.921875,3.9375,341600,3.953125,3.9375,3.0072269439697266
15-10-1992,3.90625,3.9375,205600,3.9375,3.90625,2.983360528945923
16-10-1992,3.921875,3.921875,1151200,4.078125,4.0625,3.1026957035064697
19-10-1992,4.0625,4.0625,756000,4.3125,4.28125,3.2697627544403076
20-10-1992,4.203125,4.265625,209600,4.265625,4.21875,3.2220277786254883
21-10-1992,4.140625,4.203125,104800,4.203125,4.15625,3.1742942333221436
22-10-1992,3.953125,4.140625,365600,4.140625,3.953125,3.0191597938537598
23-10-1992,3.9375,3.96875,101600,3.96875,3.953125,3.0191597938537598
26-10-1992,3.953125,3.953125,396800,4.015625,4.0,3.0549609661102295
27-10-1992,3.8125,3.984375,318400,3.984375,3.859375,2.9475595951080322
28-10-1992,3.71875,3.859375,920800,3.859375,3.828125,2.923692226409912
29-10-1992,3.828125,3.828125,348000,3.90625,3.84375,2.935626268386841
30-10-1992,3.8125,3.875,143200,3.875,3.8125,2.9117586612701416
02-11-1992,3.828125,3.828125,156800,3.875,3.875,2.9594926834106445
03-11-1992,3.75,3.875,296800,3.875,3.75,2.8640260696411133
04-11-1992,3.65625,3.765625,464000,3.78125,3.65625,2.7924251556396484
05-11-1992,3.46875,3.625,1245600,3.625,3.484375,2.6611573696136475
06-11-1992,3.53125,3.53125,1823200,3.671875,3.65625,2.7924251556396484
09-11-1992,3.5,3.625,1322400,3.65625,3.546875,2.7088918685913086
10-11-1992,3.5625,3.5625,1669600,3.625,3.625,2.7685580253601074
11-11-1992,3.5625,3.625,551200,3.625,3.5625,2.7208235263824463
12-11-1992,3.5625,3.625,1320800,3.640625,3.578125,2.732757091522217
13-11-1992,3.59375,3.609375,324000,3.640625,3.625,2.7685580253601074
16-11-1992,3.609375,3.609375,257600,3.65625,3.65625,2.7924251556396484
17-11-1992,3.625,3.625,304000,3.640625,3.625,2.7685580253601074
18-11-1992,3.625,3.625,693600,3.640625,3.640625,2.7804906368255615
19-11-1992,3.46875,3.609375,821600,3.640625,3.5,2.6730918884277344
20-11-1992,3.53125,3.53125,536800,3.59375,3.59375,2.7446908950805664
23-11-1992,3.5625,3.5625,660000,3.671875,3.625,2.7685580253601074
24-11-1992,3.578125,3.609375,503200,3.609375,3.59375,2.7446908950805664
25-11-1992,3.578125,3.578125,96000,3.609375,3.59375,2.7446908950805664
27-11-1992,3.578125,3.59375,230400,3.625,3.625,2.7685580253601074
30-11-1992,3.53125,3.625,539200,3.625,3.546875,2.7088918685913086
01-12-1992,3.53125,3.546875,1116800,3.546875,3.53125,2.696955919265747
02-12-1992,3.53125,3.53125,721600,3.578125,3.578125,2.732757091522217
03-12-1992,3.421875,3.5625,1191200,3.5625,3.4375,2.6253554821014404
04-12-1992,3.421875,3.4375,1249600,3.5,3.5,2.6730918884277344
07-12-1992,3.484375,3.484375,167200,3.546875,3.5,2.6730918884277344
08-12-1992,3.453125,3.5,580000,3.515625,3.484375,2.6611573696136475
09-12-1992,3.484375,3.5,374400,3.546875,3.53125,2.696955919265747
10-12-1992,3.484375,3.546875,1601600,3.609375,3.609375,2.7566239833831787
11-12-1992,3.65625,3.65625,151200,3.703125,3.671875,2.8043580055236816
14-12-1992,3.609375,3.671875,920000,3.671875,3.65625,2.7924251556396484
15-12-1992,3.609375,3.640625,406400,3.640625,3.625,2.7685580253601074
16-12-1992,3.59375,3.609375,402400,3.625,3.59375,2.7446908950805664
17-12-1992,3.5625,3.609375,52800,3.609375,3.5625,2.7208235263824463
18-12-1992,3.578125,3.59375,295200,3.59375,3.59375,2.7446908950805664
21-12-1992,3.546875,3.578125,488000,3.578125,3.546875,2.7088918685913086
22-12-1992,3.53125,3.5625,960800,3.5625,3.546875,2.7088918685913086
23-12-1992,3.515625,3.546875,1008000,3.546875,3.515625,2.6850242614746094
24-12-1992,3.53125,3.546875,655200,3.59375,3.59375,2.7446908950805664
28-12-1992,3.53125,3.578125,97600,3.578125,3.546875,2.7088918685913086
29-12-1992,3.53125,3.546875,596000,3.59375,3.5625,2.7208235263824463
30-12-1992,3.546875,3.578125,639200,3.578125,3.546875,2.7088918685913086
31-12-1992,3.5625,3.5625,376000,3.6875,3.671875,2.8043580055236816
04-01-1993,3.609375,3.6875,597600,3.71875,3.609375,2.7566239833831787
05-01-1993,3.578125,3.609375,715200,3.6875,3.6875,2.816291093826294
06-01-1993,3.59375,3.6875,928800,3.6875,3.609375,2.7566239833831787
07-01-1993,3.5625,3.609375,333600,3.609375,3.578125,2.732757091522217
08-01-1993,3.46875,3.578125,1617600,3.578125,3.46875,2.649223566055298
11-01-1993,3.375,3.484375,410400,3.484375,3.390625,2.5951671600341797
12-01-1993,3.359375,3.390625,269600,3.40625,3.40625,2.6071276664733887
13-01-1993,3.359375,3.40625,826400,3.484375,3.46875,2.654963970184326
14-01-1993,3.34375,3.4375,619200,3.453125,3.34375,2.5592896938323975
15-01-1993,3.359375,3.375,1232800,3.421875,3.390625,2.5951671600341797
18-01-1993,3.359375,3.390625,460000,3.390625,3.375,2.5832083225250244
19-01-1993,3.359375,3.359375,1157600,3.484375,3.453125,2.643005132675171
20-01-1993,3.4375,3.453125,132800,3.484375,3.46875,2.654963970184326
21-01-1993,3.4375,3.4375,272800,3.5,3.5,2.6788835525512695
22-01-1993,3.5,3.515625,540800,3.59375,3.59375,2.7506377696990967
25-01-1993,3.578125,3.578125,969600,3.703125,3.6875,2.8223938941955566
26-01-1993,3.78125,3.8125,1224000,3.875,3.78125,2.8941495418548584
27-01-1993,3.703125,3.734375,636000,3.765625,3.75,2.8702316284179688
28-01-1993,3.75,3.765625,773600,3.90625,3.90625,2.989825487136841
29-01-1993,3.890625,3.90625,492800,4.0,3.96875,3.037661552429199
01-02-1993,4.0,4.0,1876800,4.078125,4.0625,3.1094186305999756
02-02-1993,4.046875,4.046875,1044000,4.09375,4.09375,3.133335828781128
03-02-1993,4.09375,4.09375,1448000,4.359375,4.296875,3.2888059616088867
04-02-1993,4.328125,4.328125,1330400,4.4375,4.4375,3.396440029144287
05-02-1993,4.4375,4.4375,1606400,4.515625,4.5,3.4442763328552246
08-02-1993,4.46875,4.5,1975200,4.5,4.5,3.4442763328552246
09-02-1993,4.40625,4.5,756000,4.5,4.421875,3.3844821453094482
10-02-1993,4.359375,4.421875,800000,4.453125,4.375,3.348604202270508
11-02-1993,4.359375,4.359375,971200,4.5,4.484375,3.432318687438965
12-02-1993,4.46875,4.484375,932000,4.484375,4.484375,3.432318687438965
16-02-1993,4.34375,4.46875,292800,4.46875,4.34375,3.324683427810669
17-02-1993,4.34375,4.359375,632800,4.40625,4.390625,3.3605618476867676
18-02-1993,4.421875,4.421875,604800,4.484375,4.4375,3.396440029144287
19-02-1993,4.421875,4.4375,3408800,4.515625,4.5,3.4442763328552246
22-02-1993,4.5,4.5,1140000,4.609375,4.5625,3.4921152591705322
23-02-1993,4.5,4.59375,664000,4.59375,4.546875,3.4801557064056396
24-02-1993,4.46875,4.515625,499200,4.515625,4.484375,3.432318687438965
25-02-1993,4.359375,4.484375,259200,4.484375,4.359375,3.3366427421569824
26-02-1993,4.359375,4.390625,128000,4.421875,4.40625,3.3725221157073975
01-03-1993,4.421875,4.4375,1396000,4.53125,4.4375,3.396440029144287
02-03-1993,4.4375,4.46875,332800,4.484375,4.453125,3.4084014892578125
03-03-1993,4.46875,4.46875,4088800,4.84375,4.78125,3.659543752670288
04-03-1993,4.640625,4.75,913600,4.78125,4.734375,3.623667001724243
05-03-1993,4.6875,4.71875,335200,4.734375,4.6875,3.5877878665924072
08-03-1993,4.703125,4.703125,472000,4.796875,4.78125,3.659543752670288
09-03-1993,4.75,4.796875,324000,4.796875,4.78125,3.659543752670288
10-03-1993,4.734375,4.78125,199200,4.8125,4.8125,3.6834640502929688
11-03-1993,4.796875,4.8125,213600,4.921875,4.890625,3.743260622024536
12-03-1993,4.796875,4.921875,702400,4.921875,4.84375,3.7073819637298584
15-03-1993,4.84375,4.84375,209600,4.875,4.875,3.7313005924224854
16-03-1993,4.84375,4.859375,316800,4.875,4.859375,3.7193400859832764
17-03-1993,4.859375,4.875,136800,4.984375,4.984375,3.8150157928466797
18-03-1993,4.921875,4.96875,444000,5.0,5.0,3.8269782066345215
19-03-1993,4.96875,4.984375,300800,5.0,4.96875,3.803057909011841
22-03-1993,4.96875,4.984375,640800,5.0,4.984375,3.8150157928466797
23-03-1993,4.96875,5.015625,100800,5.015625,4.96875,3.803057909011841
24-03-1993,4.96875,4.96875,574400,5.078125,4.96875,3.803057909011841
25-03-1993,4.84375,4.90625,1020000,4.921875,4.84375,3.7073819637298584
26-03-1993,4.8125,4.84375,753600,4.921875,4.90625,3.755220890045166
29-03-1993,4.921875,4.921875,589600,4.984375,4.984375,3.8150157928466797
30-03-1993,5.0,5.0,663200,5.03125,5.03125,3.8508949279785156
31-03-1993,4.96875,5.03125,558400,5.03125,5.015625,3.838937282562256
01-04-1993,4.984375,5.03125,537600,5.03125,5.0,3.8269782066345215
02-04-1993,4.859375,4.953125,240800,4.953125,4.890625,3.743260622024536
05-04-1993,4.875,4.90625,292800,4.90625,4.90625,3.755220890045166
06-04-1993,4.875,4.90625,604800,4.90625,4.875,3.7313005924224854
07-04-1993,4.8125,4.84375,860000,4.875,4.875,3.7313005924224854
08-04-1993,4.859375,4.859375,24000,4.875,4.875,3.7370500564575195
12-04-1993,4.859375,4.859375,325600,4.96875,4.96875,3.808917760848999
13-04-1993,4.84375,4.96875,1076800,5.03125,4.875,3.7370500564575195
14-04-1993,4.84375,4.890625,447200,4.890625,4.84375,3.7130954265594482
15-04-1993,4.8125,4.875,231200,4.921875,4.8125,3.6891393661499023
16-04-1993,4.796875,4.828125,356800,4.84375,4.84375,3.7130954265594482
19-04-1993,4.828125,4.828125,173600,4.890625,4.875,3.7370500564575195
20-04-1993,4.90625,4.90625,1133600,5.0625,4.984375,3.8208932876586914
21-04-1993,4.875,5.015625,185600,5.015625,4.875,3.7370500564575195
22-04-1993,4.671875,4.84375,335200,4.84375,4.671875,3.581341505050659
23-04-1993,4.46875,4.671875,786400,4.671875,4.5,3.4495842456817627
26-04-1993,4.515625,4.53125,367200,4.640625,4.625,3.54540753364563
27-04-1993,4.625,4.65625,108000,4.65625,4.640625,3.5573840141296387
28-04-1993,4.625,4.625,189600,4.640625,4.640625,3.5573840141296387
29-04-1993,4.625,4.65625,383200,4.75,4.75,3.641228675842285
30-04-1993,4.75,4.75,779200,4.96875,4.921875,3.7729849815368652
03-05-1993,4.953125,4.953125,249600,4.984375,4.953125,3.79693865776062
04-05-1993,4.90625,4.921875,1332800,4.953125,4.921875,3.7729849815368652
05-05-1993,4.921875,4.921875,65600,4.9375,4.921875,3.7729849815368652
06-05-1993,4.921875,4.921875,664800,5.0,4.9375,3.7849605083465576
07-05-1993,4.90625,4.921875,186400,4.96875,4.921875,3.7729849815368652
10-05-1993,4.8125,4.9375,828000,4.9375,4.8125,3.6891393661499023
11-05-1993,4.78125,4.78125,1120800,4.953125,4.9375,3.7849605083465576
12-05-1993,4.90625,4.9375,852000,4.984375,4.953125,3.79693865776062
13-05-1993,4.90625,4.90625,702400,5.09375,5.0625,3.8807828426361084
14-05-1993,5.0625,5.0625,931200,5.265625,5.171875,3.9646244049072266
17-05-1993,5.15625,5.171875,390400,5.203125,5.203125,3.988583564758301
18-05-1993,5.203125,5.203125,340800,5.328125,5.296875,4.060446739196777
19-05-1993,5.1875,5.3125,412800,5.3125,5.234375,4.012538433074951
20-05-1993,5.21875,5.21875,216000,5.25,5.234375,4.012538433074951
21-05-1993,5.203125,5.234375,400000,5.234375,5.21875,4.000558853149414
24-05-1993,5.21875,5.25,496000,5.25,5.234375,4.012538433074951
25-05-1993,5.171875,5.1875,400800,5.25,5.1875,3.9766056537628174
26-05-1993,5.15625,5.1875,188000,5.203125,5.203125,3.988583564758301
27-05-1993,5.203125,5.203125,511200,5.3125,5.3125,4.072425365447998
28-05-1993,5.28125,5.296875,473600,5.3125,5.3125,4.072425365447998
01-06-1993,5.328125,5.34375,619200,5.4375,5.40625,4.14429235458374
02-06-1993,5.40625,5.40625,522400,5.625,5.5625,4.264069080352783
03-06-1993,5.484375,5.5625,403200,5.5625,5.515625,4.228138446807861
04-06-1993,5.484375,5.5,889600,5.515625,5.5,4.216159343719482
07-06-1993,5.484375,5.5,482400,5.515625,5.5,4.216159343719482
08-06-1993,5.421875,5.484375,277600,5.484375,5.4375,4.168246269226074
09-06-1993,5.40625,5.40625,262400,5.5,5.5,4.216159343719482
10-06-1993,5.4375,5.484375,779200,5.484375,5.4375,4.168246269226074
11-06-1993,5.234375,5.40625,606400,5.40625,5.234375,4.012538433074951
14-06-1993,5.125,5.21875,763200,5.21875,5.125,3.9286928176879883
15-06-1993,5.125,5.125,288800,5.15625,5.125,3.9286928176879883
16-06-1993,5.140625,5.140625,219200,5.203125,5.203125,3.988583564758301
17-06-1993,5.21875,5.21875,193600,5.328125,5.25,4.024513244628906
18-06-1993,5.265625,5.28125,224800,5.296875,5.265625,4.03649377822876
21-06-1993,5.28125,5.28125,292800,5.359375,5.34375,4.0963826179504395
22-06-1993,5.265625,5.34375,1112000,5.34375,5.265625,4.03649377822876
23-06-1993,5.265625,5.265625,2466400,5.296875,5.296875,4.060446739196777
24-06-1993,5.0625,5.296875,637600,5.296875,5.125,3.9286928176879883
25-06-1993,5.109375,5.125,36000,5.125,5.125,3.9286928176879883
28-06-1993,5.125,5.125,204800,5.140625,5.140625,3.9406728744506836
29-06-1993,4.984375,5.109375,648000,5.125,5.046875,3.868804454803467
30-06-1993,5.03125,5.0625,552000,5.09375,5.09375,3.9047393798828125
01-07-1993,5.015625,5.078125,376800,5.078125,5.046875,3.868804454803467
02-07-1993,5.015625,5.0625,100000,5.0625,5.046875,3.868804454803467
06-07-1993,5.0,5.046875,437600,5.09375,5.0,3.8328747749328613
07-07-1993,4.96875,4.96875,1369600,5.078125,5.078125,3.8927597999572754
08-07-1993,5.078125,5.078125,955200,5.1875,5.1875,3.9766056537628174
09-07-1993,5.171875,5.171875,1352000,5.25,5.25,4.030341148376465
12-07-1993,5.28125,5.28125,900000,5.34375,5.3125,4.078321933746338
13-07-1993,5.28125,5.3125,100000,5.3125,5.28125,4.054333686828613
14-07-1993,5.28125,5.28125,538400,5.3125,5.28125,4.054333686828613
15-07-1993,5.21875,5.3125,338400,5.3125,5.25,4.030341148376465
16-07-1993,5.234375,5.25,147200,5.265625,5.25,4.030341148376465
19-07-1993,5.25,5.296875,417600,5.296875,5.28125,4.054333686828613
20-07-1993,5.25,5.25,713600,5.3125,5.3125,4.078321933746338
21-07-1993,5.3125,5.3125,395200,5.34375,5.3125,4.078321933746338
22-07-1993,5.28125,5.3125,314400,5.3125,5.296875,4.06632661819458
23-07-1993,5.25,5.296875,341600,5.3125,5.3125,4.078321933746338
26-07-1993,5.296875,5.34375,196000,5.34375,5.296875,4.06632661819458
27-07-1993,5.21875,5.265625,191200,5.28125,5.25,4.030341148376465
28-07-1993,5.234375,5.25,356800,5.296875,5.265625,4.042337894439697
29-07-1993,5.25,5.265625,98400,5.3125,5.296875,4.06632661819458
30-07-1993,5.3125,5.3125,57600,5.328125,5.328125,4.0903191566467285
02-08-1993,5.3125,5.328125,1029600,5.46875,5.46875,4.1982741355896
03-08-1993,5.484375,5.484375,356000,5.578125,5.5625,4.2702412605285645
04-08-1993,5.546875,5.546875,400000,5.65625,5.625,4.318222999572754
05-08-1993,5.609375,5.609375,56000,5.640625,5.625,4.318222999572754
06-08-1993,5.578125,5.625,348800,5.625,5.59375,4.2942328453063965
09-08-1993,5.609375,5.609375,344800,5.6875,5.6875,4.36620569229126
10-08-1993,5.6875,5.6875,632800,5.75,5.75,4.414186000823975
11-08-1993,5.78125,5.78125,784800,6.0,6.0,4.606104850769043
12-08-1993,5.984375,6.0,1103200,6.21875,6.015625,4.618099689483643
13-08-1993,5.9375,6.03125,226400,6.03125,5.9375,4.558126449584961
16-08-1993,5.9375,5.9375,448000,5.984375,5.984375,4.5941081047058105
17-08-1993,6.0625,6.0625,640000,6.25,6.25,4.798025608062744
18-08-1993,6.234375,6.234375,805600,6.484375,6.421875,4.929974555969238
19-08-1993,6.3125,6.4375,424000,6.46875,6.3125,4.846006393432617
20-08-1993,6.3125,6.3125,914400,6.453125,6.453125,4.9539618492126465
23-08-1993,6.453125,6.46875,964800,6.703125,6.703125,5.145881652832031
24-08-1993,6.53125,6.703125,704000,6.703125,6.5625,5.037928104400635
25-08-1993,6.4375,6.5625,753600,6.578125,6.453125,4.9539618492126465
26-08-1993,6.25,6.453125,817600,6.453125,6.296875,4.834012508392334
27-08-1993,6.03125,6.28125,627200,6.28125,6.125,4.702064037322998
30-08-1993,6.109375,6.125,529600,6.25,6.21875,4.774038314819336
31-08-1993,6.171875,6.234375,888000,6.328125,6.28125,4.822015762329102
01-09-1993,6.28125,6.28125,388800,6.390625,6.375,4.893986225128174
02-09-1993,6.28125,6.375,286400,6.375,6.28125,4.822015762329102
03-09-1993,6.28125,6.28125,135200,6.328125,6.296875,4.834012508392334
07-09-1993,6.125,6.296875,236800,6.328125,6.125,4.702064037322998
08-09-1993,5.953125,6.125,388800,6.125,5.953125,4.570120334625244
09-09-1993,5.921875,5.953125,533600,5.984375,5.96875,4.582115173339844
10-09-1993,5.953125,5.96875,121600,5.984375,5.984375,4.5941081047058105
13-09-1993,5.921875,5.984375,472800,6.03125,5.921875,4.546131610870361
14-09-1993,5.90625,5.953125,633600,5.96875,5.9375,4.558126449584961
15-09-1993,5.921875,5.9375,994400,6.046875,6.0,4.606104850769043
16-09-1993,6.0,6.0,152800,6.03125,6.0,4.606104850769043
17-09-1993,5.890625,5.96875,127200,5.96875,5.9375,4.558126449584961
20-09-1993,5.9375,5.9375,248000,5.96875,5.96875,4.582115173339844
21-09-1993,5.96875,5.96875,218400,6.03125,6.015625,4.618099689483643
22-09-1993,5.96875,6.0,99200,6.03125,5.96875,4.582115173339844
23-09-1993,5.953125,5.984375,232800,5.984375,5.984375,4.5941081047058105
24-09-1993,5.953125,5.96875,357600,6.0,5.96875,4.582115173339844
27-09-1993,5.953125,5.953125,441600,6.0,5.984375,4.5941081047058105
28-09-1993,5.921875,5.984375,326400,5.984375,5.9375,4.558126449584961
29-09-1993,5.9375,5.9375,1200800,6.453125,6.453125,4.9539618492126465
30-09-1993,6.453125,6.453125,755200,6.625,6.625,5.085909366607666
01-10-1993,6.59375,6.59375,599200,6.71875,6.71875,5.157876968383789
04-10-1993,6.640625,6.71875,248000,6.75,6.640625,5.09790563583374
05-10-1993,6.578125,6.65625,122400,6.65625,6.578125,5.049921989440918
06-10-1993,6.5,6.578125,114400,6.578125,6.53125,5.013936996459961
07-10-1993,6.4375,6.5,224000,6.5,6.484375,4.977955341339111
08-10-1993,6.40625,6.484375,245600,6.484375,6.421875,4.9356818199157715
11-10-1993,6.25,6.421875,288000,6.421875,6.25,4.80358362197876
12-10-1993,6.125,6.25,272800,6.25,6.125,4.7075114250183105
13-10-1993,5.96875,6.078125,826400,6.109375,5.984375,4.599428653717041
14-10-1993,6.0,6.09375,388000,6.125,6.03125,4.6354570388793945
15-10-1993,5.828125,6.0,707200,6.0,5.875,4.5153656005859375
18-10-1993,5.71875,5.875,719200,5.875,5.75,4.419297218322754
19-10-1993,5.484375,5.75,1467200,5.875,5.828125,4.479341506958008
20-10-1993,5.3125,5.796875,1626400,5.796875,5.3125,4.083044528961182
21-10-1993,5.4375,5.4375,3216000,5.6875,5.5,4.227154731750488
22-10-1993,5.375,5.5,928800,5.5,5.375,4.131080627441406
25-10-1993,5.28125,5.375,901600,5.421875,5.28125,4.059026718139648
26-10-1993,5.0,5.28125,1536800,5.3125,5.03125,3.8668863773345947
27-10-1993,5.0625,5.0625,1416000,5.1875,5.1875,3.986975908279419
28-10-1993,5.1875,5.1875,1215200,5.453125,5.453125,4.191126346588135
29-10-1993,5.328125,5.421875,412800,5.46875,5.34375,4.107063293457031
01-11-1993,5.34375,5.359375,379200,5.484375,5.453125,4.191126346588135
02-11-1993,5.453125,5.453125,553600,5.578125,5.5625,4.2751874923706055
03-11-1993,5.578125,5.609375,540800,5.671875,5.625,4.323226451873779
04-11-1993,5.625,5.65625,345600,5.734375,5.625,4.323226451873779
05-11-1993,5.53125,5.625,112800,5.625,5.5625,4.2751874923706055
08-11-1993,5.46875,5.5625,207200,5.5625,5.46875,4.203135013580322
09-11-1993,5.1875,5.46875,542400,5.46875,5.21875,4.010990619659424
10-11-1993,5.21875,5.25,191200,5.28125,5.265625,4.047018527984619
11-11-1993,5.203125,5.28125,564800,5.40625,5.21875,4.010990619659424
12-11-1993,5.0625,5.203125,1202400,5.203125,5.203125,3.9989843368530273
15-11-1993,5.140625,5.203125,675200,5.234375,5.140625,3.9509477615356445
16-11-1993,4.875,4.96875,827200,4.984375,4.9375,3.794829845428467
17-11-1993,4.9375,5.0,1617600,5.203125,5.203125,3.9989843368530273
18-11-1993,5.15625,5.203125,463200,5.359375,5.296875,4.071035861968994
19-11-1993,5.21875,5.25,85600,5.265625,5.265625,4.047018527984619
22-11-1993,5.078125,5.25,173600,5.25,5.078125,3.9029128551483154
23-11-1993,5.078125,5.109375,697600,5.21875,5.09375,3.9149181842803955
24-11-1993,5.109375,5.109375,556800,5.15625,5.15625,3.962956190109253
26-11-1993,5.03125,5.125,94400,5.125,5.03125,3.8668863773345947
29-11-1993,4.828125,4.96875,1270400,4.96875,4.828125,3.710768938064575
30-11-1993,4.78125,4.84375,457600,4.859375,4.828125,3.710768938064575
01-12-1993,4.828125,4.859375,316000,4.921875,4.859375,3.7347826957702637
02-12-1993,4.84375,4.84375,429600,4.90625,4.859375,3.7347826957702637
03-12-1993,4.875,4.875,142400,4.90625,4.875,3.746795177459717
06-12-1993,4.84375,4.875,308800,4.90625,4.890625,3.7588019371032715
07-12-1993,4.859375,4.875,528800,4.953125,4.90625,3.770813465118408
08-12-1993,4.84375,4.890625,89600,4.890625,4.859375,3.7347826957702637
09-12-1993,4.71875,4.859375,69600,4.859375,4.78125,3.674741506576538
10-12-1993,4.796875,4.796875,271200,4.84375,4.828125,3.710768938064575
13-12-1993,4.71875,4.859375,102400,4.859375,4.765625,3.662731647491455
14-12-1993,4.734375,4.796875,620800,4.8125,4.8125,3.698758602142334
15-12-1993,4.71875,4.765625,128000,4.765625,4.734375,3.6387152671813965
16-12-1993,4.75,4.75,565600,4.84375,4.78125,3.674741506576538
17-12-1993,4.734375,4.796875,200800,4.8125,4.75,3.6507246494293213
20-12-1993,4.40625,4.71875,927200,4.71875,4.515625,3.4705886840820312
21-12-1993,4.265625,4.546875,880000,4.546875,4.4375,3.4105424880981445
22-12-1993,4.40625,4.453125,676000,4.75,4.734375,3.6387152671813965
23-12-1993,4.703125,4.703125,176000,4.796875,4.75,3.6507246494293213
27-12-1993,4.6875,4.6875,1060000,4.890625,4.859375,3.7347826957702637
28-12-1993,4.8125,4.890625,629600,4.921875,4.8125,3.698758602142334
29-12-1993,4.828125,4.828125,648000,4.890625,4.859375,3.7347826957702637
30-12-1993,4.828125,4.84375,270400,4.859375,4.859375,3.7347826957702637
31-12-1993,4.828125,4.859375,112800,4.875,4.875,3.746795177459717
03-01-1994,4.828125,4.875,332000,4.875,4.875,3.746795177459717
04-01-1994,4.84375,4.84375,202400,4.890625,4.890625,3.7588019371032715
05-01-1994,4.96875,4.96875,800000,5.25,5.203125,3.9989843368530273
06-01-1994,5.234375,5.234375,999200,5.484375,5.453125,4.191126346588135
07-01-1994,5.40625,5.46875,704800,5.46875,5.4375,4.1791181564331055
10-01-1994,5.421875,5.421875,573600,5.640625,5.640625,4.341222286224365
11-01-1994,5.453125,5.59375,1028800,5.59375,5.5,4.2329936027526855
12-01-1994,5.390625,5.5,296000,5.53125,5.40625,4.1608381271362305
13-01-1994,5.3125,5.40625,10779200,5.421875,5.3125,4.088683605194092
14-01-1994,5.15625,5.28125,1295200,5.328125,5.15625,3.9684319496154785
17-01-1994,5.21875,5.25,1098400,5.3125,5.296875,4.076656818389893
18-01-1994,5.3125,5.3125,851200,5.4375,5.4375,4.184887886047363
19-01-1994,5.46875,5.46875,1249600,5.609375,5.515625,4.245018005371094
20-01-1994,5.359375,5.515625,487200,5.5625,5.359375,4.124762535095215
21-01-1994,5.34375,5.390625,354400,5.421875,5.375,4.136787414550781
24-01-1994,5.3125,5.390625,408800,5.40625,5.3125,4.088683605194092
25-01-1994,5.296875,5.3125,284000,5.328125,5.3125,4.088683605194092
26-01-1994,5.265625,5.3125,873600,5.40625,5.375,4.136787414550781
27-01-1994,5.375,5.375,1322400,5.5625,5.546875,4.26906681060791
28-01-1994,5.484375,5.5,303200,5.515625,5.5,4.2329936027526855
31-01-1994,5.515625,5.53125,787200,5.671875,5.515625,4.245018005371094
01-02-1994,5.546875,5.546875,700800,5.625,5.609375,4.317170143127441
02-02-1994,5.578125,5.578125,999200,5.9375,5.765625,4.4374260902404785
03-02-1994,5.734375,5.8125,155200,5.8125,5.75,4.425402641296387
04-02-1994,5.703125,5.78125,1171200,5.828125,5.71875,4.401348114013672
07-02-1994,5.609375,5.671875,363200,5.671875,5.625,4.329196453094482
08-02-1994,5.59375,5.625,355200,5.75,5.734375,4.4133734703063965
09-02-1994,5.59375,5.734375,272800,5.734375,5.65625,4.353248596191406
10-02-1994,5.5,5.65625,944800,5.65625,5.5,4.2329936027526855
11-02-1994,5.5,5.53125,212800,5.71875,5.6875,4.377297401428223
14-02-1994,5.40625,5.6875,335200,5.6875,5.5,4.2329936027526855
15-02-1994,5.46875,5.46875,137600,5.53125,5.5,4.2329936027526855
16-02-1994,5.375,5.46875,541600,5.484375,5.375,4.136787414550781
17-02-1994,5.34375,5.390625,538400,5.46875,5.34375,4.112735748291016
18-02-1994,5.328125,5.375,437600,5.390625,5.34375,4.112735748291016
22-02-1994,5.359375,5.375,83200,5.40625,5.375,4.136787414550781
23-02-1994,5.34375,5.34375,152000,5.4375,5.421875,4.1728620529174805
24-02-1994,5.375,5.421875,108800,5.4375,5.4375,4.184887886047363
25-02-1994,5.46875,5.5,848800,5.5625,5.46875,4.208942890167236
28-02-1994,5.375,5.46875,57600,5.46875,5.375,4.136787414550781
01-03-1994,5.34375,5.40625,180000,5.40625,5.375,4.136787414550781
02-03-1994,5.28125,5.34375,310400,5.34375,5.3125,4.088683605194092
03-03-1994,5.296875,5.328125,92800,5.34375,5.3125,4.088683605194092
04-03-1994,5.296875,5.296875,196800,5.40625,5.390625,4.148810386657715
07-03-1994,5.34375,5.40625,268800,5.40625,5.34375,4.112735748291016
08-03-1994,5.234375,5.3125,516800,5.328125,5.234375,4.028556823730469
09-03-1994,4.96875,5.203125,609600,5.203125,5.03125,3.872225761413574
10-03-1994,4.921875,5.015625,894400,5.046875,4.9375,3.800070285797119
11-03-1994,4.921875,4.953125,410400,5.03125,5.015625,3.8602001667022705
14-03-1994,5.015625,5.015625,308800,5.1875,5.171875,3.9804556369781494
15-03-1994,5.21875,5.21875,446400,5.328125,5.28125,4.06463098526001
16-03-1994,5.25,5.265625,458400,5.296875,5.28125,4.06463098526001
17-03-1994,5.265625,5.265625,423200,5.515625,5.484375,4.2209672927856445
18-03-1994,5.5,5.53125,879200,5.6875,5.6875,4.377297401428223
21-03-1994,5.671875,5.71875,813600,5.734375,5.71875,4.401348114013672
22-03-1994,5.6875,5.6875,1078400,5.8125,5.796875,4.461476802825928
23-03-1994,5.625,5.6875,722400,5.6875,5.671875,4.365272521972656
24-03-1994,5.5625,5.59375,674400,5.65625,5.625,4.329196453094482
25-03-1994,5.609375,5.609375,510400,5.671875,5.625,4.329196453094482
28-03-1994,5.4375,5.609375,1590400,5.609375,5.4375,4.184887886047363
29-03-1994,5.25,5.421875,617600,5.421875,5.25,4.040582656860352
30-03-1994,5.109375,5.234375,567200,5.328125,5.3125,4.088683605194092
31-03-1994,5.265625,5.3125,148800,5.34375,5.34375,4.112735748291016
04-04-1994,5.25,5.3125,445600,5.3125,5.265625,4.052608966827393
05-04-1994,5.234375,5.28125,940000,5.328125,5.25,4.040582656860352
06-04-1994,5.21875,5.3125,240000,5.375,5.375,4.136787414550781
07-04-1994,5.34375,5.375,574400,5.4375,5.34375,4.112735748291016
08-04-1994,5.3125,5.328125,169600,5.34375,5.34375,4.112735748291016
11-04-1994,5.265625,5.3125,698400,5.3125,5.296875,4.0823869705200195
12-04-1994,5.3125,5.3125,1101600,5.40625,5.375,4.142602920532227
13-04-1994,5.359375,5.375,604000,5.4375,5.4375,4.19077205657959
14-04-1994,5.359375,5.390625,1280800,5.53125,5.53125,4.263024806976318
15-04-1994,5.46875,5.53125,826400,5.875,5.875,4.52795934677124
18-04-1994,5.6875,5.8125,1331200,5.8125,5.796875,4.467746734619141
19-04-1994,5.734375,5.78125,704000,5.8125,5.734375,4.4195756912231445
20-04-1994,5.703125,5.71875,727200,5.71875,5.71875,4.407534599304199
21-04-1994,5.703125,5.703125,480000,5.765625,5.75,4.4316229820251465
22-04-1994,5.71875,5.734375,332000,5.796875,5.765625,4.443663597106934
25-04-1994,5.734375,5.765625,498400,5.9375,5.9375,4.576128005981445
26-04-1994,5.9375,5.9375,1096000,5.96875,5.96875,4.600214958190918
28-04-1994,5.9375,5.953125,856800,6.015625,5.953125,4.588171005249023
29-04-1994,5.890625,5.9375,535200,5.9375,5.9375,4.576128005981445
02-05-1994,5.890625,5.90625,652000,5.953125,5.953125,4.588171005249023
03-05-1994,5.859375,5.9375,560800,5.9375,5.875,4.52795934677124
04-05-1994,5.875,5.875,358400,5.9375,5.9375,4.576128005981445
05-05-1994,5.921875,5.96875,66400,5.96875,5.921875,4.564087867736816
06-05-1994,5.921875,5.921875,343200,6.125,6.09375,4.69655704498291
09-05-1994,6.03125,6.109375,453600,6.109375,6.078125,4.684513568878174
10-05-1994,6.09375,6.140625,632800,6.140625,6.09375,4.69655704498291
11-05-1994,6.03125,6.09375,187200,6.109375,6.03125,4.648385524749756
12-05-1994,6.03125,6.046875,806400,6.15625,6.140625,4.7326812744140625
13-05-1994,6.109375,6.109375,257600,6.125,6.125,4.720637321472168
16-05-1994,6.109375,6.140625,293600,6.140625,6.109375,4.708595275878906
17-05-1994,5.890625,6.09375,1044000,6.09375,5.953125,4.588171005249023
18-05-1994,5.90625,5.96875,1417600,5.984375,5.96875,4.600214958190918
19-05-1994,5.890625,5.984375,205600,5.984375,5.890625,4.540003299713135
20-05-1994,5.8125,5.90625,309600,5.90625,5.828125,4.4918317794799805
23-05-1994,5.765625,5.796875,208800,5.8125,5.765625,4.443663597106934
24-05-1994,5.703125,5.75,287200,5.75,5.703125,4.395491600036621
25-05-1994,5.65625,5.71875,179200,5.71875,5.65625,4.359363555908203
26-05-1994,5.515625,5.59375,840800,5.625,5.546875,4.275068759918213
27-05-1994,5.53125,5.5625,70400,5.59375,5.578125,4.299154758453369
31-05-1994,5.5,5.546875,752800,5.578125,5.5,4.238941192626953
01-06-1994,5.5,5.5,480800,5.546875,5.515625,4.250984191894531
02-06-1994,5.46875,5.5,600000,5.53125,5.46875,4.214857578277588
03-06-1994,5.34375,5.453125,136800,5.453125,5.421875,4.178727149963379
06-06-1994,5.453125,5.5,132800,5.5,5.46875,4.214857578277588
07-06-1994,5.46875,5.46875,863200,5.578125,5.5625,4.287110328674316
08-06-1994,5.4375,5.5625,276800,5.5625,5.46875,4.214857578277588
09-06-1994,5.375,5.4375,304800,5.4375,5.375,4.142602920532227
10-06-1994,5.375,5.375,165600,5.578125,5.578125,4.299154758453369
13-06-1994,5.578125,5.578125,736800,5.703125,5.6875,4.383450984954834
14-06-1994,5.703125,5.703125,476000,5.75,5.75,4.4316229820251465
15-06-1994,5.71875,5.75,292000,5.78125,5.734375,4.4195756912231445
16-06-1994,5.71875,5.71875,132000,5.78125,5.78125,4.4557037353515625
17-06-1994,5.75,5.75,384000,5.90625,5.90625,4.552044868469238
20-06-1994,5.75,5.9375,174800,5.9375,5.84375,4.503874778747559
21-06-1994,5.78125,5.78125,166400,5.90625,5.90625,4.552044868469238
22-06-1994,5.875,5.96875,52800,5.96875,5.90625,4.552044868469238
23-06-1994,5.75,5.96875,197200,5.96875,5.75,4.4316229820251465
24-06-1994,5.59375,5.75,143200,5.75,5.71875,4.407534599304199
27-06-1994,5.625,5.6875,136800,5.75,5.71875,4.407534599304199
28-06-1994,5.59375,5.65625,190800,5.71875,5.71875,4.407534599304199
29-06-1994,5.65625,5.71875,94800,5.75,5.75,4.4316229820251465
30-06-1994,5.59375,5.6875,440400,5.75,5.75,4.4316229820251465
01-07-1994,5.625,5.75,150400,5.75,5.65625,4.359363555908203
05-07-1994,5.5,5.6875,72400,5.6875,5.5,4.238941192626953
06-07-1994,5.46875,5.5,182800,5.6875,5.6875,4.383450984954834
07-07-1994,5.59375,5.71875,36000,5.71875,5.59375,4.311196804046631
08-07-1994,5.5,5.5625,24000,5.59375,5.5,4.238941192626953
11-07-1994,5.5,5.53125,51600,5.5625,5.5625,4.292965888977051
12-07-1994,5.5,5.5625,98800,5.59375,5.5625,4.292965888977051
13-07-1994,5.40625,5.59375,277200,5.65625,5.5,4.2447285652160645
14-07-1994,5.4375,5.53125,72800,5.53125,5.4375,4.196493625640869
15-07-1994,5.34375,5.40625,68800,5.40625,5.375,4.148258209228516
18-07-1994,5.3125,5.4375,261600,5.46875,5.46875,4.220611572265625
19-07-1994,5.375,5.4375,143200,5.4375,5.375,4.148258209228516
20-07-1994,5.3125,5.40625,31600,5.40625,5.3125,4.100021839141846
21-07-1994,5.1875,5.1875,230800,5.34375,5.34375,4.124141216278076
22-07-1994,5.1875,5.3125,37600,5.3125,5.21875,4.027668476104736
25-07-1994,5.03125,5.25,187200,5.25,5.03125,3.882965087890625
26-07-1994,4.9375,5.0625,230000,5.0625,4.96875,3.8347229957580566
27-07-1994,4.90625,5.0,551200,5.03125,4.9375,3.810610055923462
28-07-1994,4.9375,4.9375,342800,5.0,5.0,3.8588435649871826
29-07-1994,4.96875,5.0,209600,5.0,4.96875,3.8347229957580566
01-08-1994,4.9375,4.9375,620000,5.0,5.0,3.8588435649871826
02-08-1994,4.9375,4.96875,216400,5.0,5.0,3.8588435649871826
03-08-1994,4.90625,4.96875,430800,5.03125,5.0,3.8588435649871826
04-08-1994,4.9375,4.96875,156400,5.0625,5.0,3.8588435649871826
05-08-1994,4.78125,4.96875,233200,5.0,4.78125,3.690019369125366
08-08-1994,4.8125,4.84375,731600,4.90625,4.84375,3.738255739212036
09-08-1994,4.78125,4.8125,1479200,5.0,5.0,3.8588435649871826
10-08-1994,5.03125,5.0625,600000,5.125,5.0625,3.9070792198181152
11-08-1994,4.96875,5.03125,326800,5.09375,4.96875,3.8347229957580566
12-08-1994,4.9375,4.96875,558400,5.03125,5.0,3.8588435649871826
15-08-1994,4.96875,5.0,71600,5.0625,4.96875,3.8347229957580566
16-08-1994,4.9375,5.0,300800,5.0,4.9375,3.810610055923462
17-08-1994,4.90625,4.9375,148800,5.0,4.96875,3.8347229957580566
18-08-1994,4.90625,4.96875,228400,4.96875,4.9375,3.810610055923462
19-08-1994,4.90625,4.9375,330400,4.953125,4.90625,3.7864911556243896
22-08-1994,4.8125,4.9375,137200,4.9375,4.8125,3.714137554168701
23-08-1994,4.78125,4.875,459200,4.90625,4.84375,3.738255739212036
24-08-1994,4.875,4.875,956000,5.03125,4.9375,3.810610055923462
25-08-1994,4.75,4.96875,773200,4.96875,4.78125,3.690019369125366
26-08-1994,4.65625,4.8125,1071600,4.875,4.8125,3.714137554168701
29-08-1994,4.625,4.875,1677600,4.875,4.71875,3.64178466796875
30-08-1994,4.6875,4.71875,976800,4.8125,4.8125,3.714137554168701
31-08-1994,4.75,4.8125,1103600,4.90625,4.8125,3.714137554168701
01-09-1994,4.78125,4.78125,967600,4.875,4.84375,3.738255739212036
02-09-1994,4.84375,4.90625,250400,4.9375,4.9375,3.810610055923462
06-09-1994,4.875,4.90625,397200,5.03125,5.03125,3.882965087890625
07-09-1994,5.0625,5.0625,1347600,5.25,5.1875,4.003551483154297
08-09-1994,5.125,5.125,1925200,5.4375,5.4375,4.196493625640869
09-09-1994,5.125,5.375,1384800,5.375,5.125,3.955315113067627
12-09-1994,5.125,5.1875,572800,5.21875,5.125,3.955315113067627
13-09-1994,5.125,5.15625,136400,5.1875,5.15625,3.97943377494812
14-09-1994,5.125,5.125,378800,5.25,5.25,4.05178689956665
15-09-1994,5.21875,5.25,1040800,5.3125,5.25,4.05178689956665
16-09-1994,5.25,5.28125,429600,5.375,5.375,4.148258209228516
19-09-1994,5.25,5.375,374400,5.375,5.25,4.05178689956665
20-09-1994,5.0,5.1875,248400,5.1875,5.125,3.955315113067627
21-09-1994,4.9375,5.125,303200,5.125,5.0,3.8588435649871826
22-09-1994,5.0,5.0625,68000,5.0625,5.0,3.8588435649871826
23-09-1994,5.0625,5.0625,456000,5.21875,5.1875,4.003551483154297
26-09-1994,5.15625,5.15625,168800,5.25,5.25,4.05178689956665
27-09-1994,5.15625,5.21875,271200,5.21875,5.1875,4.003551483154297
28-09-1994,5.15625,5.1875,45600,5.21875,5.15625,3.97943377494812
29-09-1994,5.125,5.1875,135200,5.1875,5.15625,3.97943377494812
30-09-1994,5.0625,5.1875,63600,5.1875,5.09375,3.9311985969543457
03-10-1994,5.0625,5.09375,100000,5.125,5.0625,3.9070792198181152
04-10-1994,4.96875,5.09375,256800,5.09375,4.96875,3.8347229957580566
05-10-1994,4.96875,4.96875,100400,5.03125,5.03125,3.882965087890625
06-10-1994,5.03125,5.0625,187200,5.125,5.0625,3.9070792198181152
07-10-1994,5.09375,5.09375,220000,5.3125,5.28125,4.08195161819458
10-10-1994,5.28125,5.28125,344000,5.375,5.3125,4.106105804443359
11-10-1994,5.3125,5.3125,328800,5.375,5.3125,4.106105804443359
12-10-1994,5.15625,5.25,155600,5.25,5.15625,3.985339403152466
13-10-1994,5.1875,5.21875,285600,5.28125,5.25,4.057796955108643
14-10-1994,5.1875,5.25,151200,5.25,5.25,4.057796955108643
17-10-1994,5.25,5.3125,88000,5.3125,5.25,4.057796955108643
18-10-1994,5.25,5.25,153200,5.375,5.375,4.1544108390808105
19-10-1994,5.34375,5.34375,236000,5.4375,5.34375,4.130259037017822
20-10-1994,5.21875,5.3125,174000,5.34375,5.25,4.057796955108643
21-10-1994,5.1875,5.1875,66800,5.25,5.21875,4.0336432456970215
24-10-1994,5.1875,5.25,72800,5.34375,5.3125,4.106105804443359
25-10-1994,5.1875,5.3125,243200,5.34375,5.25,4.057796955108643
26-10-1994,5.21875,5.25,512800,5.40625,5.40625,4.178565979003906
27-10-1994,5.375,5.375,1548800,5.625,5.53125,4.275180816650391
28-10-1994,5.46875,5.5,638000,5.6875,5.65625,4.371794700622559
31-10-1994,5.5,5.625,102000,5.625,5.53125,4.275180816650391
01-11-1994,5.46875,5.53125,71200,5.5625,5.5625,4.299335956573486
02-11-1994,5.4375,5.53125,349600,5.53125,5.46875,4.22687292098999
03-11-1994,5.46875,5.5,54000,5.5625,5.53125,4.275180816650391
04-11-1994,5.46875,5.46875,237600,5.53125,5.46875,4.22687292098999
07-11-1994,5.4375,5.5,145600,5.5,5.4375,4.202718734741211
08-11-1994,5.375,5.40625,126800,5.4375,5.40625,4.178565979003906
09-11-1994,5.4375,5.4375,328400,5.46875,5.4375,4.202718734741211
10-11-1994,5.4375,5.4375,60800,5.46875,5.4375,4.202718734741211
11-11-1994,5.34375,5.4375,80800,5.46875,5.34375,4.130259037017822
14-11-1994,5.21875,5.3125,125600,5.3125,5.25,4.057796955108643
15-11-1994,5.21875,5.25,166400,5.28125,5.28125,4.08195161819458
16-11-1994,5.15625,5.21875,154800,5.25,5.15625,3.985339403152466
17-11-1994,4.90625,5.09375,990400,5.09375,4.96875,3.840414047241211
18-11-1994,4.625,4.90625,1564800,4.90625,4.78125,3.69549298286438
21-11-1994,4.71875,4.8125,789600,4.84375,4.75,3.6713411808013916
22-11-1994,4.625,4.6875,559600,4.71875,4.6875,3.6230342388153076
23-11-1994,4.5,4.71875,952400,4.71875,4.59375,3.550572633743286
25-11-1994,4.53125,4.5625,45600,4.59375,4.53125,3.502265453338623
28-11-1994,4.46875,4.59375,1295600,4.59375,4.53125,3.502265453338623
29-11-1994,4.46875,4.53125,1277200,4.625,4.59375,3.550572633743286
30-11-1994,4.53125,4.625,410400,4.625,4.53125,3.502265453338623
01-12-1994,4.5,4.53125,507600,4.65625,4.625,3.574728488922119
02-12-1994,4.625,4.625,588000,4.6875,4.625,3.574728488922119
05-12-1994,4.375,4.59375,1013600,4.65625,4.375,3.3814992904663086
06-12-1994,4.375,4.375,664400,4.4375,4.375,3.3814992904663086
07-12-1994,4.34375,4.375,218400,4.5625,4.5625,3.5264220237731934
08-12-1994,4.53125,4.53125,552800,4.8125,4.6875,3.6230342388153076
09-12-1994,4.5625,4.625,588400,4.625,4.59375,3.550572633743286
12-12-1994,4.625,4.625,519200,4.6875,4.65625,3.598881244659424
13-12-1994,4.65625,4.65625,408000,4.78125,4.75,3.6713411808013916
14-12-1994,4.78125,4.78125,529200,4.96875,4.9375,3.8162622451782227
15-12-1994,4.8125,4.96875,116000,4.96875,4.84375,3.743800640106201
16-12-1994,4.8125,4.84375,312800,4.875,4.84375,3.743800640106201
19-12-1994,4.75,4.84375,426800,4.84375,4.8125,3.7196462154388428
20-12-1994,4.625,4.75,305200,4.8125,4.65625,3.598881244659424
21-12-1994,4.59375,4.6875,634400,4.6875,4.625,3.574728488922119
22-12-1994,4.53125,4.65625,284000,4.65625,4.53125,3.502265453338623
23-12-1994,4.53125,4.5625,29600,4.59375,4.5625,3.5264220237731934
27-12-1994,4.4375,4.59375,209600,4.59375,4.5,3.478111982345581
28-12-1994,4.5,4.5,228800,4.59375,4.59375,3.550572633743286
29-12-1994,4.65625,4.65625,221200,4.8125,4.71875,3.6471898555755615
30-12-1994,4.6875,4.71875,150400,4.78125,4.6875,3.6230342388153076
03-01-1995,4.65625,4.75,129600,4.78125,4.75,3.6713411808013916
04-01-1995,4.6875,4.75,68400,4.8125,4.71875,3.6471898555755615
05-01-1995,4.59375,4.65625,260000,4.6875,4.65625,3.598881244659424
06-01-1995,4.5,4.6875,404800,4.6875,4.5625,3.5264220237731934
09-01-1995,4.46875,4.53125,613600,4.5625,4.46875,3.4596457481384277
10-01-1995,4.3125,4.4375,289600,4.4375,4.3125,3.338679552078247
11-01-1995,4.3125,4.3125,124800,4.40625,4.40625,3.411259651184082
12-01-1995,4.3125,4.375,374400,4.4375,4.3125,3.338679552078247
13-01-1995,4.28125,4.3125,66800,4.40625,4.375,3.38706636428833
16-01-1995,4.28125,4.3125,480800,4.328125,4.3125,3.338679552078247
17-01-1995,4.3125,4.3125,437600,4.4375,4.40625,3.411259651184082
18-01-1995,4.40625,4.40625,606000,4.59375,4.5625,3.532227039337158
19-01-1995,4.5,4.5625,248000,4.5625,4.5,3.4838390350341797
20-01-1995,4.5,4.53125,76400,4.53125,4.53125,3.508033514022827
23-01-1995,4.375,4.46875,128800,4.5,4.375,3.38706636428833
24-01-1995,4.375,4.375,345600,4.5625,4.53125,3.508033514022827
25-01-1995,4.46875,4.53125,129600,4.53125,4.5,3.4838390350341797
26-01-1995,4.5,4.5,145200,4.625,4.625,3.5806126594543457
27-01-1995,4.5,4.5625,512000,4.59375,4.53125,3.508033514022827
30-01-1995,4.4375,4.53125,193200,4.53125,4.46875,3.4596457481384277
31-01-1995,4.4375,4.4375,186400,4.53125,4.4375,3.4354536533355713
01-02-1995,4.4375,4.4375,46000,4.5,4.46875,3.4596457481384277
02-02-1995,4.4375,4.46875,41600,4.5,4.46875,3.4596457481384277
03-02-1995,4.4375,4.5,243600,4.53125,4.5,3.4838390350341797
06-02-1995,4.5625,4.625,651200,4.8125,4.75,3.67738676071167
07-02-1995,4.6875,4.8125,437200,4.8125,4.6875,3.6289994716644287
08-02-1995,4.71875,4.71875,549600,4.8125,4.75,3.67738676071167
09-02-1995,4.6875,4.78125,278800,4.78125,4.6875,3.6289994716644287
10-02-1995,4.6875,4.71875,243600,4.78125,4.78125,3.7015769481658936
13-02-1995,4.8125,4.8125,264800,4.90625,4.84375,3.749964714050293
14-02-1995,4.75,4.84375,137600,4.84375,4.84375,3.749964714050293
15-02-1995,4.8125,4.84375,277200,4.96875,4.9375,3.822547674179077
16-02-1995,4.9375,4.9375,477600,5.03125,5.0,3.870932102203369
17-02-1995,5.0,5.0,261200,5.125,5.125,3.9677071571350098
21-02-1995,5.09375,5.125,92400,5.125,5.125,3.9677071571350098
22-02-1995,5.0625,5.09375,214400,5.125,5.09375,3.943511724472046
23-02-1995,5.0625,5.125,348800,5.15625,5.15625,3.991900682449341
24-02-1995,5.09375,5.15625,281200,5.15625,5.125,3.9677071571350098
27-02-1995,5.09375,5.125,381600,5.15625,5.15625,3.991900682449341
28-02-1995,5.15625,5.1875,322400,5.21875,5.21875,4.040287494659424
01-03-1995,5.15625,5.1875,70800,5.1875,5.15625,3.991900682449341
02-03-1995,5.15625,5.15625,218800,5.25,5.25,4.064478874206543
03-03-1995,5.21875,5.25,259600,5.28125,5.25,4.064478874206543
06-03-1995,5.15625,5.25,236400,5.25,5.21875,4.040287494659424
07-03-1995,5.125,5.25,405200,5.25,5.125,3.9677071571350098
08-03-1995,5.125,5.15625,442800,5.28125,5.21875,4.040287494659424
09-03-1995,5.1875,5.25,179600,5.28125,5.28125,4.088674068450928
10-03-1995,5.15625,5.25,170400,5.25,5.15625,3.991900682449341
13-03-1995,5.15625,5.1875,100800,5.21875,5.1875,4.01609468460083
14-03-1995,5.1875,5.1875,101600,5.25,5.25,4.064478874206543
15-03-1995,5.25,5.25,317200,5.34375,5.3125,4.112867832183838
16-03-1995,5.28125,5.28125,635600,5.5,5.4375,4.2096405029296875
17-03-1995,5.3125,5.40625,492800,5.5,5.4375,4.2096405029296875
20-03-1995,5.28125,5.40625,426800,5.5,5.34375,4.137061595916748
21-03-1995,5.25,5.3125,159600,5.3125,5.25,4.064478874206543
22-03-1995,5.28125,5.3125,349200,5.375,5.3125,4.112867832183838
23-03-1995,5.3125,5.34375,279600,5.4375,5.40625,4.185446739196777
24-03-1995,5.28125,5.40625,696000,5.40625,5.3125,4.112867832183838
27-03-1995,5.3125,5.34375,314400,5.5,5.5,4.258025646209717
28-03-1995,5.5,5.5,268800,5.5625,5.5625,4.306413173675537
29-03-1995,5.5625,5.5625,458000,5.6875,5.625,4.354799270629883
30-03-1995,5.65625,5.65625,414400,5.875,5.875,4.548346996307373
31-03-1995,5.90625,5.90625,1336800,6.21875,6.15625,4.766085624694824
03-04-1995,5.96875,6.15625,1253600,6.15625,5.96875,4.620926856994629
04-04-1995,5.84375,5.96875,666000,5.96875,5.875,4.548346996307373
05-04-1995,5.84375,5.875,1044800,5.96875,5.90625,4.572539329528809
06-04-1995,5.71875,5.875,704000,5.875,5.71875,4.427379608154297
07-04-1995,5.625,5.6875,227600,5.75,5.625,4.360517501831055
10-04-1995,5.59375,5.59375,525600,5.75,5.75,4.4574174880981445
11-04-1995,5.6875,5.78125,668400,5.78125,5.75,4.4574174880981445
12-04-1995,5.71875,5.75,110400,5.78125,5.78125,4.481643199920654
13-04-1995,5.75,5.8125,191600,5.875,5.75,4.4574174880981445
17-04-1995,5.75,5.78125,133200,5.8125,5.75,4.4574174880981445
18-04-1995,5.5625,5.75,805200,5.75,5.5625,4.312068939208984
19-04-1995,5.53125,5.59375,182400,5.625,5.625,4.360517501831055
20-04-1995,5.625,5.625,356000,5.78125,5.78125,4.481643199920654
21-04-1995,5.8125,5.8125,1894000,6.1875,6.09375,4.723896503448486
24-04-1995,5.9375,6.125,940800,6.1875,5.9375,4.602770805358887
25-04-1995,5.84375,5.875,103200,5.90625,5.84375,4.530093193054199
26-04-1995,5.71875,5.875,144000,5.875,5.78125,4.481643199920654
27-04-1995,5.65625,5.78125,390800,5.78125,5.65625,4.384742259979248
28-04-1995,5.6875,5.71875,266400,5.71875,5.71875,4.4331955909729
01-05-1995,5.71875,5.75,529200,5.78125,5.75,4.4574174880981445
02-05-1995,5.6875,5.75,406400,5.75,5.75,4.4574174880981445
03-05-1995,5.75,5.75,199600,5.8125,5.75,4.4574174880981445
04-05-1995,5.6875,5.75,215200,5.75,5.71875,4.4331955909729
05-05-1995,5.65625,5.6875,289200,5.75,5.65625,4.384742259979248
08-05-1995,5.625,5.65625,224000,5.6875,5.65625,4.384742259979248
09-05-1995,5.625,5.65625,509200,5.8125,5.8125,4.505869388580322
10-05-1995,5.78125,5.78125,706400,5.9375,5.9375,4.602770805358887
11-05-1995,5.78125,5.90625,222000,5.90625,5.8125,4.505869388580322
12-05-1995,5.75,5.8125,38800,5.8125,5.78125,4.481643199920654
15-05-1995,5.78125,5.8125,279600,5.875,5.875,4.554318904876709
16-05-1995,5.84375,5.90625,43200,5.9375,5.84375,4.530093193054199
17-05-1995,5.78125,5.84375,295600,5.84375,5.8125,4.505869388580322
18-05-1995,5.65625,5.8125,107600,5.8125,5.71875,4.4331955909729
19-05-1995,5.71875,5.71875,130800,5.75,5.75,4.4574174880981445
22-05-1995,5.6875,5.75,64000,5.75,5.6875,4.408970832824707
23-05-1995,5.71875,5.71875,340800,5.90625,5.875,4.554318904876709
24-05-1995,5.84375,5.875,449200,6.09375,6.09375,4.723896503448486
25-05-1995,6.0,6.03125,798400,6.125,6.0625,4.6996684074401855
26-05-1995,5.9375,6.0625,177600,6.0625,5.96875,4.626994609832764
30-05-1995,5.9375,5.9375,303600,6.03125,6.03125,4.675446033477783
31-05-1995,6.0,6.0625,254800,6.0625,6.0625,4.6996684074401855
01-06-1995,6.03125,6.0625,26000,6.09375,6.03125,4.675446033477783
02-06-1995,5.9375,6.0625,201600,6.09375,5.96875,4.626994609832764
05-06-1995,5.96875,6.0,137600,6.0,6.0,4.651218891143799
06-06-1995,5.875,6.0,53200,6.0,5.90625,4.578544616699219
07-06-1995,5.8125,5.9375,307600,5.9375,5.8125,4.505869388580322
08-06-1995,5.75,5.8125,242000,5.8125,5.78125,4.481643199920654
09-06-1995,5.75,5.78125,652000,5.8125,5.78125,4.481643199920654
12-06-1995,5.71875,5.78125,188000,5.78125,5.75,4.4574174880981445
13-06-1995,5.6875,5.6875,119200,5.71875,5.71875,4.4331955909729
14-06-1995,5.71875,5.78125,300400,5.78125,5.78125,4.481643199920654
15-06-1995,5.71875,5.75,186800,5.8125,5.8125,4.505869388580322
16-06-1995,5.6875,5.8125,190000,5.8125,5.6875,4.408970832824707
19-06-1995,5.59375,5.65625,399600,5.71875,5.6875,4.408970832824707
20-06-1995,5.34375,5.71875,788000,5.71875,5.34375,4.142493724822998
21-06-1995,5.1875,5.34375,494400,5.34375,5.21875,4.04559326171875
22-06-1995,5.0625,5.21875,762800,5.21875,5.15625,3.9971423149108887
23-06-1995,5.1875,5.1875,2558400,5.34375,5.3125,4.11826753616333
26-06-1995,5.25,5.28125,352400,5.375,5.34375,4.142493724822998
27-06-1995,5.3125,5.3125,496800,5.4375,5.40625,4.19094181060791
28-06-1995,5.21875,5.375,1011200,5.375,5.25,4.069817066192627
29-06-1995,5.1875,5.25,250400,5.25,5.1875,4.021369457244873
30-06-1995,5.21875,5.21875,653600,5.4375,5.4375,4.2151665687561035
03-07-1995,5.34375,5.40625,317600,5.46875,5.46875,4.239391803741455
05-07-1995,5.28125,5.4375,124000,5.4375,5.28125,4.094043254852295
06-07-1995,5.21875,5.25,680800,5.28125,5.25,4.069817066192627
07-07-1995,5.21875,5.25,272400,5.25,5.25,4.069817066192627
10-07-1995,5.125,5.28125,638400,5.3125,5.125,3.972916603088379
11-07-1995,5.0,5.125,582000,5.28125,5.15625,3.9971423149108887
12-07-1995,5.1875,5.1875,335600,5.28125,5.25,4.075743198394775
13-07-1995,5.21875,5.375,817600,5.4375,5.21875,4.051482677459717
14-07-1995,5.15625,5.25,286000,5.28125,5.1875,4.02722692489624
17-07-1995,5.15625,5.1875,460400,5.25,5.21875,4.051482677459717
18-07-1995,5.21875,5.21875,77600,5.28125,5.28125,4.100007057189941
19-07-1995,5.1875,5.25,132000,5.28125,5.25,4.075743198394775
20-07-1995,5.25,5.25,379200,5.375,5.28125,4.100007057189941
21-07-1995,5.21875,5.28125,248000,5.375,5.34375,4.1485276222229
24-07-1995,5.3125,5.3125,176400,5.40625,5.375,4.172787189483643
25-07-1995,5.40625,5.40625,344000,5.46875,5.4375,4.221307277679443
26-07-1995,5.34375,5.40625,244000,5.40625,5.34375,4.1485276222229
27-07-1995,5.21875,5.28125,758000,5.375,5.28125,4.100007057189941
28-07-1995,5.25,5.3125,111600,5.375,5.375,4.172787189483643
31-07-1995,5.34375,5.34375,217200,5.4375,5.40625,4.197045803070068
01-08-1995,5.1875,5.375,532800,5.375,5.21875,4.051482677459717
02-08-1995,5.1875,5.21875,302000,5.25,5.21875,4.051482677459717
03-08-1995,5.125,5.1875,552400,5.34375,5.34375,4.1485276222229
04-08-1995,5.28125,5.34375,558800,5.34375,5.34375,4.1485276222229
07-08-1995,5.34375,5.375,101600,5.40625,5.375,4.172787189483643
08-08-1995,5.34375,5.40625,305200,5.4375,5.34375,4.1485276222229
09-08-1995,5.3125,5.40625,703200,5.40625,5.3125,4.124265193939209
10-08-1995,5.1875,5.3125,166000,5.34375,5.1875,4.02722692489624
11-08-1995,5.15625,5.15625,349600,5.3125,5.3125,4.124265193939209
14-08-1995,5.25,5.34375,134400,5.34375,5.25,4.075743198394775
15-08-1995,5.25,5.3125,108800,5.34375,5.25,4.075743198394775
16-08-1995,5.125,5.21875,242000,5.21875,5.21875,4.051482677459717
17-08-1995,5.1875,5.1875,371600,5.3125,5.28125,4.100007057189941
18-08-1995,5.28125,5.28125,542400,5.5,5.40625,4.197045803070068
21-08-1995,5.40625,5.46875,575600,5.5,5.40625,4.197045803070068
22-08-1995,5.4375,5.4375,362400,5.53125,5.53125,4.294090270996094
23-08-1995,5.5625,5.5625,317600,5.71875,5.625,4.3668694496154785
24-08-1995,5.46875,5.59375,2007200,5.625,5.5,4.269827842712402
25-08-1995,5.5,5.5,160000,5.53125,5.5,4.269827842712402
28-08-1995,5.46875,5.5,280000,5.5625,5.53125,4.294090270996094
29-08-1995,5.5,5.53125,56400,5.5625,5.53125,4.294090270996094
30-08-1995,5.625,5.625,290400,5.65625,5.65625,4.391131401062012
31-08-1995,5.6875,5.6875,116800,5.84375,5.8125,4.512434005737305
01-09-1995,5.84375,5.84375,431200,5.96875,5.96875,4.633736610412598
05-09-1995,5.90625,5.96875,545200,6.03125,6.03125,4.682255744934082
06-09-1995,5.90625,5.96875,415600,6.0,6.0,4.657995700836182
07-09-1995,5.78125,6.0,284000,6.03125,6.03125,4.682255744934082
08-09-1995,5.9375,6.03125,248000,6.09375,5.9375,4.609474182128906
11-09-1995,5.9375,5.96875,230800,6.03125,6.03125,4.682255744934082
12-09-1995,5.90625,6.0,312400,6.15625,6.15625,4.779296875
13-09-1995,6.03125,6.125,547600,6.125,6.0625,4.706514835357666
14-09-1995,5.9375,6.03125,348000,6.09375,6.09375,4.730774879455566
15-09-1995,6.0625,6.0625,221200,6.1875,6.1875,4.803559303283691
18-09-1995,6.125,6.15625,490000,6.34375,6.21875,4.827816486358643
19-09-1995,6.0,6.15625,504800,6.1875,6.15625,4.779296875
20-09-1995,6.0,6.125,284800,6.125,6.0,4.657995700836182
21-09-1995,5.9375,6.0625,451200,6.0625,6.03125,4.682255744934082
22-09-1995,5.78125,6.03125,143600,6.03125,5.875,4.560953617095947
25-09-1995,5.75,5.84375,183200,5.84375,5.78125,4.488171100616455
26-09-1995,5.65625,5.78125,232000,5.78125,5.65625,4.391131401062012
27-09-1995,5.625,5.6875,229200,5.75,5.75,4.463910102844238
28-09-1995,5.625,5.8125,263600,5.96875,5.625,4.3668694496154785
29-09-1995,5.4375,5.59375,635600,5.59375,5.4375,4.221307277679443
02-10-1995,5.4375,5.46875,548400,5.6875,5.59375,4.34260892868042
03-10-1995,5.5625,5.5625,304400,5.6875,5.65625,4.391131401062012
04-10-1995,5.5625,5.625,230800,5.65625,5.65625,4.391131401062012
05-10-1995,5.5,5.625,76800,5.625,5.53125,4.294090270996094
06-10-1995,5.5,5.5,259200,5.5625,5.5625,4.3183512687683105
09-10-1995,5.5,5.59375,48000,5.59375,5.5,4.269827842712402
10-10-1995,5.375,5.46875,109600,5.46875,5.375,4.172787189483643
11-10-1995,5.34375,5.375,166000,5.40625,5.34375,4.1485276222229
12-10-1995,5.34375,5.375,620000,5.5625,5.5,4.2758283615112305
13-10-1995,5.5,5.5,227200,5.59375,5.53125,4.3001251220703125
16-10-1995,5.40625,5.53125,188800,5.53125,5.46875,4.251535415649414
17-10-1995,5.40625,5.4375,398400,5.5,5.5,4.2758283615112305
18-10-1995,5.25,5.4375,1966400,5.46875,5.25,4.081472396850586
19-10-1995,5.21875,5.21875,1503600,5.3125,5.21875,4.057177543640137
20-10-1995,5.125,5.25,333600,5.25,5.125,3.984295129776001
23-10-1995,5.0,5.15625,608000,5.15625,5.0,3.8871164321899414
24-10-1995,4.90625,5.0,1186800,5.0,4.9375,3.8385303020477295
25-10-1995,4.71875,4.9375,658400,4.9375,4.71875,3.6684677600860596
26-10-1995,4.6875,4.75,439600,4.8125,4.71875,3.6684677600860596
27-10-1995,4.71875,4.71875,352000,4.875,4.875,3.78994083404541
30-10-1995,4.9375,4.9375,646800,5.0,4.96875,3.8628218173980713
31-10-1995,4.96875,5.0,314800,5.03125,5.0,3.8871164321899414
01-11-1995,5.0,5.0,390800,5.03125,5.0,3.8871164321899414
02-11-1995,4.9375,4.96875,42800,5.0,4.9375,3.8385303020477295
03-11-1995,4.875,4.875,165600,4.96875,4.96875,3.8628218173980713
06-11-1995,4.90625,4.96875,63600,4.96875,4.90625,3.8142361640930176
07-11-1995,4.9375,4.9375,476400,5.03125,5.03125,3.911411762237549
08-11-1995,4.875,4.96875,907200,5.0,5.0,3.8871164321899414
09-11-1995,5.03125,5.09375,1176400,5.15625,5.03125,3.911411762237549
10-11-1995,4.90625,5.03125,550000,5.03125,4.90625,3.8142361640930176
13-11-1995,4.9375,4.96875,446800,5.09375,5.09375,3.96000075340271
14-11-1995,4.9375,5.03125,1045600,5.0625,4.96875,3.8628218173980713
15-11-1995,4.96875,4.96875,228000,5.03125,5.0,3.8871164321899414
16-11-1995,5.03125,5.03125,1046400,5.4375,5.375,4.178652763366699
17-11-1995,5.375,5.40625,906800,5.40625,5.40625,4.202944755554199
20-11-1995,5.1875,5.40625,585600,5.40625,5.1875,4.032886981964111
21-11-1995,5.1875,5.21875,363200,5.375,5.34375,4.15435791015625
22-11-1995,5.34375,5.375,432800,5.40625,5.40625,4.202944755554199
24-11-1995,5.3125,5.40625,229200,5.40625,5.3125,4.130062580108643
27-11-1995,5.125,5.21875,851200,5.21875,5.1875,4.032886981964111
28-11-1995,5.1875,5.1875,315200,5.28125,5.25,4.081472396850586
29-11-1995,5.21875,5.28125,28800,5.28125,5.21875,4.057177543640137
30-11-1995,5.1875,5.28125,311200,5.28125,5.25,4.081472396850586
01-12-1995,5.25,5.25,308400,5.34375,5.28125,4.10576868057251
04-12-1995,5.125,5.3125,1056000,5.3125,5.3125,4.130062580108643
05-12-1995,5.3125,5.3125,461200,5.375,5.375,4.178652763366699
06-12-1995,5.40625,5.40625,685200,5.4375,5.4375,4.227239608764648
07-12-1995,5.4375,5.4375,720400,5.5,5.5,4.2758283615112305
08-12-1995,5.4375,5.46875,18838800,5.65625,5.65625,4.397303581237793
11-12-1995,5.71875,5.8125,5631200,5.875,5.875,4.567365646362305
12-12-1995,5.8125,5.875,2874000,5.90625,5.875,4.567365646362305
13-12-1995,5.84375,5.875,3176800,6.09375,6.0,4.664543151855469
14-12-1995,5.90625,6.03125,2280000,6.09375,5.90625,4.5916571617126465
15-12-1995,5.875,6.1875,1721200,6.21875,6.0,4.664543151855469
18-12-1995,5.8125,5.9375,974000,5.96875,5.96875,4.640249252319336
19-12-1995,5.875,5.96875,876000,6.0625,6.0625,4.71312952041626
20-12-1995,6.03125,6.0625,2001200,6.21875,6.03125,4.688836097717285
21-12-1995,6.0,6.03125,1896800,6.125,6.03125,4.688836097717285
22-12-1995,5.9375,6.09375,1115600,6.15625,6.03125,4.688836097717285
26-12-1995,6.03125,6.09375,490800,6.09375,6.03125,4.688836097717285
27-12-1995,5.9375,6.03125,582000,6.03125,5.9375,4.615952491760254
28-12-1995,5.90625,5.90625,1150800,6.15625,6.15625,4.786013603210449
29-12-1995,5.9375,6.1875,677200,6.1875,6.0,4.664543151855469
02-01-1996,6.03125,6.0625,579600,6.125,6.09375,4.737423896789551
03-01-1996,5.875,6.125,1148000,6.125,5.96875,4.640249252319336
04-01-1996,5.9375,5.96875,1644000,6.0625,5.96875,4.640249252319336
05-01-1996,5.9375,5.9375,680800,6.09375,6.0625,4.71312952041626
08-01-1996,6.0625,6.0625,779200,6.125,6.125,4.761719226837158
09-01-1996,5.9375,6.15625,948400,6.15625,6.0,4.664543151855469
10-01-1996,5.84375,6.0,516400,6.03125,5.96875,4.640249252319336
11-01-1996,5.6875,5.8125,1618400,5.8125,5.78125,4.500131607055664
12-01-1996,5.75,5.75,555200,5.8125,5.8125,4.524459362030029
15-01-1996,5.75,5.875,1159200,5.875,5.75,4.475809574127197
16-01-1996,5.71875,5.75,1683200,5.8125,5.75,4.475809574127197
17-01-1996,5.59375,5.75,2281600,5.78125,5.75,4.475809574127197
18-01-1996,5.71875,5.75,504000,5.78125,5.78125,4.500131607055664
19-01-1996,5.75,5.8125,803200,5.84375,5.75,4.475809574127197
22-01-1996,5.78125,5.78125,545600,5.875,5.875,4.573111057281494
23-01-1996,5.78125,5.84375,426400,5.90625,5.78125,4.500131607055664
24-01-1996,5.78125,5.8125,539600,5.96875,5.875,4.573111057281494
25-01-1996,5.875,5.875,693600,5.96875,5.9375,4.621760368347168
26-01-1996,5.875,5.90625,1880000,5.90625,5.875,4.573111057281494
29-01-1996,5.875,5.90625,1636800,6.0,6.0,4.67041015625
30-01-1996,5.96875,6.0,970800,6.03125,6.03125,4.694736957550049
31-01-1996,5.96875,6.03125,650000,6.125,6.09375,4.74338436126709
01-02-1996,6.125,6.125,2182400,6.3125,6.21875,4.840684413909912
02-02-1996,6.125,6.15625,1204000,6.25,6.15625,4.792035102844238
05-02-1996,6.0625,6.09375,923200,6.15625,6.09375,4.74338436126709
06-02-1996,6.03125,6.09375,938400,6.125,6.03125,4.694736957550049
07-02-1996,6.0625,6.09375,838800,6.15625,6.125,4.767710208892822
08-02-1996,6.125,6.125,705600,6.25,6.1875,4.8163628578186035
09-02-1996,6.125,6.1875,1770400,6.28125,6.25,4.865010738372803
12-02-1996,6.15625,6.25,4923200,6.65625,6.53125,5.083935260772705
13-02-1996,6.25,6.59375,3442800,6.59375,6.34375,4.937984943389893
14-02-1996,6.375,6.375,1570000,6.625,6.5625,5.108260154724121
15-02-1996,6.53125,6.53125,1637600,6.9375,6.90625,5.37583589553833
16-02-1996,6.65625,7.125,2182000,7.125,6.75,5.254212379455566
20-02-1996,6.5625,6.625,421200,6.71875,6.625,5.156911373138428
21-02-1996,6.53125,6.5625,1553600,6.71875,6.71875,5.229886054992676
22-02-1996,6.59375,6.6875,1300800,6.75,6.6875,5.205562591552734
23-02-1996,6.5625,6.65625,660000,6.75,6.71875,5.229886054992676
26-02-1996,6.5625,6.625,556400,6.65625,6.59375,5.132585525512695
27-02-1996,6.5,6.53125,532800,6.625,6.59375,5.132585525512695
28-02-1996,6.40625,6.59375,2225600,6.71875,6.40625,4.986636161804199
29-02-1996,6.1875,6.4375,956000,6.4375,6.25,4.865010738372803
01-03-1996,6.25,6.25,402800,6.34375,6.25,4.865010738372803
04-03-1996,6.1875,6.25,809200,6.34375,6.3125,4.913661479949951
05-03-1996,6.15625,6.25,574000,6.25,6.25,4.865010738372803
06-03-1996,6.1875,6.21875,830000,6.40625,6.40625,4.986636161804199
07-03-1996,6.3125,6.375,1132000,6.40625,6.375,4.962312698364258
08-03-1996,6.1875,6.1875,278400,6.28125,6.21875,4.840684413909912
11-03-1996,6.09375,6.1875,1366400,6.1875,6.15625,4.792035102844238
12-03-1996,6.09375,6.125,1108400,6.15625,6.125,4.767710208892822
13-03-1996,6.125,6.125,1038800,6.1875,6.1875,4.8163628578186035
14-03-1996,6.25,6.25,2724800,6.40625,6.3125,4.913661479949951
15-03-1996,6.0,6.25,1051600,6.25,6.0625,4.719058036804199
18-03-1996,6.0625,6.09375,4547200,6.375,6.375,4.962312698364258
19-03-1996,6.34375,6.375,473600,6.4375,6.34375,4.937984943389893
20-03-1996,6.1875,6.375,223600,6.375,6.1875,4.8163628578186035
21-03-1996,6.125,6.1875,936800,6.28125,6.125,4.767710208892822
22-03-1996,6.09375,6.15625,1019600,6.1875,6.09375,4.74338436126709
25-03-1996,6.0625,6.0625,907200,6.28125,6.28125,4.889336585998535
26-03-1996,6.25,6.28125,216800,6.3125,6.3125,4.913661479949951
27-03-1996,6.40625,6.5,1842000,6.59375,6.53125,5.083935260772705
28-03-1996,6.53125,6.53125,1270000,6.65625,6.65625,5.1812357902526855
29-03-1996,6.5625,6.59375,1343600,6.625,6.59375,5.132585525512695
01-04-1996,6.5625,6.59375,752800,6.6875,6.6875,5.205562591552734
02-04-1996,6.65625,6.71875,1116400,6.875,6.84375,5.327186107635498
03-04-1996,6.71875,6.78125,1519600,6.96875,6.9375,5.400160789489746
04-04-1996,6.75,6.9375,796800,6.9375,6.875,5.351513385772705
08-04-1996,6.625,6.84375,1262800,6.84375,6.8125,5.302861213684082
09-04-1996,6.8125,6.8125,923200,6.90625,6.875,5.351513385772705
10-04-1996,6.78125,6.8125,1358000,6.96875,6.9375,5.400160789489746
11-04-1996,6.84375,6.875,932000,6.9375,6.875,5.357303142547607
12-04-1996,6.59375,6.875,1120000,6.875,6.65625,5.1868438720703125
15-04-1996,6.5625,6.59375,948000,6.78125,6.75,5.259899139404297
16-04-1996,6.6875,6.78125,846000,6.78125,6.75,5.259899139404297
17-04-1996,6.65625,6.75,1494800,6.75,6.6875,5.211195945739746
18-04-1996,6.5,6.6875,1113200,6.6875,6.53125,5.089441299438477
19-04-1996,6.5,6.5,884400,6.6875,6.65625,5.1868438720703125
22-04-1996,6.65625,6.65625,2457600,6.90625,6.8125,5.308600425720215
23-04-1996,6.78125,6.9375,1053200,7.0,6.90625,5.381655693054199
24-04-1996,6.90625,6.90625,1069200,7.15625,7.03125,5.479061603546143
25-04-1996,6.9375,6.96875,536800,7.0,6.9375,5.406006336212158
26-04-1996,6.78125,6.875,486400,6.9375,6.78125,5.284250259399414
29-04-1996,6.71875,6.71875,705200,6.875,6.78125,5.284250259399414
30-04-1996,6.59375,6.8125,779600,6.875,6.625,5.1624932289123535
01-05-1996,6.5,6.625,808400,6.75,6.5,5.065084934234619
02-05-1996,6.46875,6.5625,373600,6.59375,6.5625,5.113789081573486
03-05-1996,6.53125,6.625,680000,6.625,6.625,5.1624932289123535
06-05-1996,6.5625,6.59375,504400,6.65625,6.5625,5.113789081573486
07-05-1996,6.125,6.625,1395600,6.65625,6.21875,4.845923900604248
08-05-1996,6.1875,6.25,620400,6.34375,6.25,4.87027645111084
09-05-1996,6.25,6.25,332000,6.375,6.375,4.967682838439941
10-05-1996,6.25,6.375,818400,6.40625,6.3125,4.918979167938232
13-05-1996,6.21875,6.25,796000,6.3125,6.25,4.87027645111084
14-05-1996,6.15625,6.25,1208800,6.28125,6.15625,4.7972187995910645
15-05-1996,6.09375,6.1875,2372400,6.3125,6.3125,4.918979167938232
16-05-1996,6.25,6.34375,379600,6.34375,6.28125,4.894626140594482
17-05-1996,6.1875,6.25,1017600,6.28125,6.25,4.87027645111084
20-05-1996,6.25,6.25,425600,6.375,6.34375,4.943327903747559
21-05-1996,6.3125,6.3125,2660400,6.46875,6.4375,5.016385078430176
22-05-1996,6.4375,6.4375,552000,6.5,6.5,5.065084934234619
23-05-1996,6.53125,6.5625,1154800,6.75,6.5625,5.113789081573486
24-05-1996,6.4375,6.5,1701200,6.53125,6.5,5.065084934234619
28-05-1996,6.359375,6.53125,554000,6.53125,6.4375,5.016385078430176
29-05-1996,6.3125,6.40625,613600,6.40625,6.375,4.967682838439941
30-05-1996,6.25,6.375,604000,6.375,6.3125,4.918979167938232
31-05-1996,6.25,6.34375,493200,6.375,6.3125,4.918979167938232
03-06-1996,6.28125,6.3125,211200,6.3125,6.3125,4.918979167938232
04-06-1996,6.375,6.40625,654800,6.46875,6.375,4.967682838439941
05-06-1996,6.40625,6.4375,679600,6.46875,6.4375,5.016385078430176
06-06-1996,6.25,6.4375,278800,6.4375,6.28125,4.894626140594482
07-06-1996,6.15625,6.21875,702800,6.34375,6.34375,4.943327903747559
10-06-1996,6.3125,6.34375,241200,6.34375,6.3125,4.918979167938232
11-06-1996,6.28125,6.3125,761600,6.375,6.3125,4.918979167938232
12-06-1996,6.25,6.3125,1385200,6.3125,6.28125,4.894626140594482
13-06-1996,6.09375,6.28125,985600,6.28125,6.1875,4.821574687957764
14-06-1996,6.15625,6.1875,1093200,6.21875,6.15625,4.7972187995910645
17-06-1996,6.0625,6.09375,586400,6.125,6.0625,4.724167346954346
18-06-1996,5.96875,6.0,1450000,6.125,5.96875,4.651115417480469
19-06-1996,6.03125,6.03125,1416800,6.15625,6.0625,4.724167346954346
20-06-1996,6.0625,6.09375,1258400,6.125,6.09375,4.748517990112305
21-06-1996,6.0,6.09375,650800,6.09375,6.0,4.675466060638428
24-06-1996,5.96875,6.03125,948000,6.0625,6.0,4.675466060638428
25-06-1996,5.96875,6.03125,2754000,6.25,6.15625,4.7972187995910645
26-06-1996,6.21875,6.21875,5256400,6.625,6.625,5.1624932289123535
27-06-1996,6.53125,6.59375,4884000,6.75,6.75,5.259899139404297
28-06-1996,6.78125,6.8125,5409200,6.96875,6.96875,5.430356979370117
01-07-1996,6.90625,6.96875,3778800,7.28125,7.28125,5.673868656158447
02-07-1996,7.125,7.15625,2342000,7.25,7.21875,5.625169277191162
03-07-1996,7.125,7.125,1392000,7.21875,7.21875,5.625169277191162
05-07-1996,7.125,7.21875,753600,7.3125,7.28125,5.673868656158447
08-07-1996,7.1875,7.25,924800,7.3125,7.25,5.649520397186279
09-07-1996,7.25,7.25,2440800,7.5625,7.5,5.844332695007324
10-07-1996,7.46875,7.5,3225600,7.65625,7.5625,5.893034934997559
11-07-1996,7.125,7.46875,3954400,7.59375,7.1875,5.606378555297852
12-07-1996,7.125,7.15625,1191200,7.21875,7.15625,5.58200216293335
15-07-1996,7.09375,7.125,1718400,7.34375,7.125,5.557624816894531
16-07-1996,6.5625,7.0625,1854400,7.09375,6.65625,5.191993236541748
17-07-1996,6.6875,6.6875,2270000,6.96875,6.6875,5.216370105743408
18-07-1996,6.65625,6.75,990400,6.8125,6.71875,5.240743160247803
19-07-1996,6.65625,6.6875,1322800,6.71875,6.6875,5.216370105743408
22-07-1996,6.5625,6.6875,1101600,6.6875,6.59375,5.143242359161377
23-07-1996,6.53125,6.625,2303200,6.8125,6.8125,5.313870429992676
24-07-1996,6.625,6.75,327600,6.75,6.625,5.167619228363037
25-07-1996,6.375,6.625,762800,6.78125,6.375,4.972615718841553
26-07-1996,6.40625,6.40625,462800,6.5625,6.53125,5.094492435455322
29-07-1996,6.4375,6.5,676800,6.53125,6.5,5.070114612579346
30-07-1996,6.25,6.46875,1988800,6.53125,6.3125,4.923862934112549
31-07-1996,6.125,6.3125,1733600,6.3125,6.25,4.875111103057861
01-08-1996,6.25,6.25,1422800,6.375,6.3125,4.923862934112549
02-08-1996,6.3125,6.3125,1042800,6.46875,6.46875,5.045738220214844
05-08-1996,6.34375,6.46875,503200,6.59375,6.59375,5.143242359161377
06-08-1996,6.5,6.59375,495200,6.65625,6.65625,5.191993236541748
07-08-1996,6.75,6.75,1542800,6.84375,6.84375,5.3382463455200195
08-08-1996,6.75,6.84375,767600,6.875,6.84375,5.3382463455200195
09-08-1996,6.71875,6.875,634400,6.875,6.71875,5.240743160247803
12-08-1996,6.625,6.75,167600,6.75,6.625,5.167619228363037
13-08-1996,6.625,6.65625,389600,6.6875,6.625,5.167619228363037
14-08-1996,6.625,6.625,333200,6.65625,6.65625,5.191993236541748
15-08-1996,6.625,6.625,331600,6.75,6.75,5.265120029449463
16-08-1996,6.625,6.6875,329600,6.71875,6.71875,5.240743160247803
19-08-1996,6.625,6.65625,339200,6.78125,6.78125,5.289495468139648
20-08-1996,6.6875,6.8125,928800,6.8125,6.75,5.265120029449463
21-08-1996,6.59375,6.71875,837600,6.71875,6.65625,5.191993236541748
22-08-1996,6.59375,6.65625,433200,6.6875,6.65625,5.191993236541748
23-08-1996,6.5625,6.59375,228800,6.65625,6.625,5.167619228363037
26-08-1996,6.5625,6.625,488000,6.65625,6.65625,5.191993236541748
27-08-1996,6.5,6.625,669600,6.625,6.5,5.070114612579346
28-08-1996,6.46875,6.5,392800,6.5,6.46875,5.045738220214844
29-08-1996,6.4375,6.46875,499200,6.5,6.46875,5.045738220214844
30-08-1996,6.375,6.4375,160800,6.46875,6.46875,5.045738220214844
03-09-1996,6.5,6.5,1298800,6.59375,6.5625,5.1188645362854
04-09-1996,6.40625,6.53125,356400,6.53125,6.46875,5.045738220214844
05-09-1996,6.375,6.4375,382800,6.5,6.4375,5.021365165710449
06-09-1996,6.3125,6.4375,2431600,6.59375,6.46875,5.045738220214844
09-09-1996,6.40625,6.46875,501200,6.53125,6.5,5.070114612579346
10-09-1996,6.46875,6.5,488400,6.53125,6.46875,5.045738220214844
11-09-1996,6.46875,6.46875,1305600,6.65625,6.5625,5.1188645362854
12-09-1996,6.28125,6.53125,1240800,6.53125,6.3125,4.923862934112549
13-09-1996,6.125,6.3125,1250400,6.3125,6.125,4.7776103019714355
16-09-1996,6.03125,6.125,1839600,6.125,6.0625,4.72885799407959
17-09-1996,5.71875,5.875,3505600,5.9375,5.875,4.582605361938477
18-09-1996,5.875,5.90625,2286800,6.09375,6.0,4.680108547210693
19-09-1996,5.96875,5.96875,2160800,6.09375,6.03125,4.704482078552246
20-09-1996,6.03125,6.03125,601200,6.09375,6.03125,4.704482078552246
23-09-1996,6.0,6.0625,1021600,6.0625,6.03125,4.704482078552246
24-09-1996,5.84375,6.0,1552000,6.0625,5.90625,4.606978893280029
25-09-1996,5.78125,5.90625,1691200,6.0,6.0,4.680108547210693
26-09-1996,6.03125,6.03125,856400,6.15625,6.125,4.7776103019714355
27-09-1996,6.0,6.0625,1036000,6.09375,6.03125,4.704482078552246
30-09-1996,6.0,6.0,1134400,6.21875,6.21875,4.850735187530518
01-10-1996,6.25,6.25,956400,6.3125,6.3125,4.923862934112549
02-10-1996,6.28125,6.3125,774800,6.40625,6.375,4.972615718841553
03-10-1996,6.28125,6.375,691600,6.375,6.28125,4.899486064910889
04-10-1996,6.28125,6.34375,592000,6.40625,6.28125,4.899486064910889
07-10-1996,6.25,6.28125,1552000,6.4375,6.40625,4.996987342834473
08-10-1996,6.34375,6.40625,1220000,6.46875,6.375,4.972615718841553
09-10-1996,6.25,6.375,772800,6.375,6.3125,4.923862934112549
10-10-1996,5.9375,6.21875,2254800,6.21875,6.0,4.685674667358398
11-10-1996,5.9375,6.0,1258800,6.0625,5.9375,4.636865615844727
14-10-1996,5.8125,5.9375,2306000,5.96875,5.84375,4.563650131225586
15-10-1996,5.84375,5.875,1424800,6.0,6.0,4.685674667358398
16-10-1996,5.96875,6.0,1880000,6.09375,6.09375,4.758885383605957
17-10-1996,6.125,6.15625,1636400,6.25,6.25,4.880908012390137
18-10-1996,6.21875,6.25,1060800,6.40625,6.375,4.978529453277588
21-10-1996,6.25,6.34375,722000,6.375,6.25,4.880908012390137
22-10-1996,6.15625,6.25,1494400,6.3125,6.1875,4.8321027755737305
23-10-1996,5.96875,6.15625,2842800,6.15625,6.0,4.685674667358398
24-10-1996,6.0,6.03125,1593200,6.09375,6.0625,4.7344818115234375
25-10-1996,6.09375,6.09375,1020000,6.21875,6.21875,4.856503963470459
28-10-1996,6.09375,6.15625,995600,6.1875,6.09375,4.758885383605957
29-10-1996,6.03125,6.09375,1533600,6.15625,6.15625,4.807693958282471
30-10-1996,6.15625,6.15625,3300400,6.375,6.375,4.978529453277588
31-10-1996,6.375,6.375,1713200,6.53125,6.4375,5.027337551116943
01-11-1996,6.25,6.4375,1226800,6.46875,6.28125,4.905313491821289
04-11-1996,6.1875,6.25,1135200,6.28125,6.1875,4.8321027755737305
05-11-1996,6.1875,6.25,730800,6.25,6.21875,4.856503963470459
06-11-1996,6.125,6.21875,395600,6.21875,6.125,4.783291816711426
07-11-1996,6.0,6.0,1647200,6.0625,6.0,4.685674667358398
08-11-1996,6.0,6.0625,1212400,6.15625,6.15625,4.807693958282471
11-11-1996,6.15625,6.1875,1075600,6.28125,6.25,4.880908012390137
12-11-1996,6.25,6.3125,1186400,6.375,6.25,4.880908012390137
13-11-1996,6.25,6.28125,1387200,6.28125,6.28125,4.905313491821289
14-11-1996,6.28125,6.28125,2227200,6.3125,6.3125,4.929718494415283
15-11-1996,6.21875,6.28125,1321600,6.34375,6.25,4.880908012390137
18-11-1996,6.1875,6.25,682000,6.25,6.25,4.880908012390137
19-11-1996,6.21875,6.25,2281600,6.40625,6.40625,5.002932548522949
20-11-1996,6.5625,6.75,3805200,6.78125,6.78125,5.295787811279297
21-11-1996,6.59375,6.78125,1956000,6.78125,6.625,5.173762321472168
