Date,Low,Open,Volume,High,Close,Adjusted Close
17-03-1980,1.6796879768371582,0.0,164800,1.75,1.6875,0.5751738548278809
18-03-1980,1.6328129768371582,0.0,188800,1.6875,1.65625,0.5645224452018738
19-03-1980,1.6640629768371582,0.0,84800,1.6875,1.6796879768371582,0.5725111365318298
20-03-1980,1.6484379768371582,0.0,328000,1.6875,1.6875,0.5751738548278809
21-03-1980,1.6640629768371582,0.0,249600,1.6796879768371582,1.6640629768371582,0.5671853423118591
24-03-1980,1.640625,0.0,142400,1.6796879768371582,1.6796879768371582,0.5725111365318298
25-03-1980,1.6640629768371582,0.0,249600,1.6875,1.6640629768371582,0.5671853423118591
26-03-1980,1.6484379768371582,0.0,228800,1.6875,1.65625,0.5645224452018738
27-03-1980,1.640625,0.0,268800,1.65625,1.6484379768371582,0.5618600249290466
28-03-1980,1.6484379768371582,0.0,132800,1.671875,1.65625,0.5645224452018738
31-03-1980,1.671875,0.0,363200,1.796875,1.796875,0.6124536395072937
01-04-1980,1.75,0.0,276800,1.8046879768371582,1.765625,0.6018022298812866
02-04-1980,1.7109379768371582,0.0,86400,1.765625,1.7109379768371582,0.5831624865531921
03-04-1980,1.6953129768371582,0.0,156800,1.7265629768371582,1.71875,0.5858254432678223
07-04-1980,1.6875,0.0,195200,1.71875,1.6953129768371582,0.577836811542511
08-04-1980,1.6875,0.0,414400,1.71875,1.7109379768371582,0.5831624865531921
09-04-1980,1.6796879768371582,0.0,432000,1.7109379768371582,1.6875,0.5751738548278809
10-04-1980,1.6796879768371582,0.0,544000,1.703125,1.6875,0.5751738548278809
11-04-1980,1.6953129768371582,0.0,372800,1.734375,1.734375,0.5911505818367004
14-04-1980,1.7265629768371582,0.0,107200,1.75,1.734375,0.5911505818367004
15-04-1980,1.7265629768371582,0.0,110400,1.75,1.7265629768371582,0.5884882807731628
16-04-1980,1.734375,0.0,316800,1.75,1.734375,0.5911505818367004
17-04-1980,1.734375,0.0,108800,1.75,1.734375,0.5911505818367004
18-04-1980,1.734375,0.0,96000,1.75,1.7421879768371582,0.5938137769699097
21-04-1980,1.734375,0.0,128000,1.7421879768371582,1.734375,0.5911505818367004
22-04-1980,1.7265629768371582,0.0,99200,1.765625,1.765625,0.6018022298812866
23-04-1980,1.765625,0.0,123200,1.796875,1.765625,0.6018022298812866
24-04-1980,1.78125,0.0,152000,1.8125,1.7890629768371582,0.6097909808158875
25-04-1980,1.7734379768371582,0.0,67200,1.8125,1.8046879768371582,0.6151166558265686
28-04-1980,1.765625,0.0,361600,1.8046879768371582,1.78125,0.6071281433105469
29-04-1980,1.7890629768371582,0.0,164800,1.8359379768371582,1.8125,0.6177791357040405
30-04-1980,1.796875,0.0,152000,1.84375,1.8359379768371582,0.6257679462432861
01-05-1980,1.8203129768371582,0.0,312000,1.8671879768371582,1.859375,0.6337565183639526
02-05-1980,1.875,0.0,476800,1.953125,1.9453129768371582,0.6630479097366333
05-05-1980,1.90625,0.0,828800,1.9296879768371582,1.9296879768371582,0.6577221155166626
06-05-1980,1.8828129768371582,0.0,216000,1.90625,1.8828129768371582,0.64174485206604
07-05-1980,1.8671879768371582,0.0,209600,1.90625,1.890625,0.6444073915481567
08-05-1980,1.8984379768371582,0.0,158400,1.9140629768371582,1.8984379768371582,0.6470708250999451
09-05-1980,1.8671879768371582,0.0,129600,1.8984379768371582,1.8671879768371582,0.6364189982414246
12-05-1980,1.8671879768371582,0.0,190400,1.875,1.8671879768371582,0.6364189982414246
13-05-1980,1.859375,0.0,70400,1.875,1.875,0.6390821933746338
14-05-1980,1.859375,0.0,129600,1.875,1.875,0.6390821933746338
15-05-1980,1.8125,0.0,240000,1.875,1.859375,0.6337565183639526
16-05-1980,1.765625,0.0,120000,1.84375,1.765625,0.6018022298812866
19-05-1980,1.765625,0.0,148800,1.7890629768371582,1.7890629768371582,0.6097909808158875
20-05-1980,1.7890629768371582,0.0,158400,1.8359379768371582,1.8359379768371582,0.6257679462432861
21-05-1980,1.8203129768371582,0.0,532800,1.8671879768371582,1.8359379768371582,0.6257679462432861
22-05-1980,1.796875,0.0,571200,1.828125,1.828125,0.6231052875518799
23-05-1980,1.796875,0.0,224000,1.828125,1.828125,0.6231052875518799
27-05-1980,1.8125,0.0,316800,1.8671879768371582,1.828125,0.6231052875518799
28-05-1980,1.8359379768371582,0.0,542400,1.8671879768371582,1.8671879768371582,0.6364189982414246
29-05-1980,1.8515629768371582,0.0,187200,1.875,1.8515629768371582,0.6310936212539673
30-05-1980,1.84375,0.0,227200,1.890625,1.890625,0.6444073915481567
02-06-1980,1.875,0.0,192000,1.90625,1.890625,0.6444073915481567
03-06-1980,1.90625,0.0,320000,1.953125,1.921875,0.6550592184066772
04-06-1980,1.921875,0.0,123200,1.953125,1.9296879768371582,0.6577221155166626
05-06-1980,1.9375,0.0,467200,2.0,1.96875,0.6710360646247864
06-06-1980,1.9375,0.0,120000,1.96875,1.9375,0.6603847146034241
09-06-1980,1.9296879768371582,0.0,83200,1.953125,1.9375,0.6603847146034241
10-06-1980,1.953125,0.0,203200,1.9921879768371582,1.9921879768371582,0.6790244579315186
11-06-1980,1.9765629768371582,0.0,70400,1.9921879768371582,1.9921879768371582,0.6790244579315186
12-06-1980,1.9609379768371582,0.0,128000,1.984375,1.96875,0.6710360646247864
13-06-1980,1.953125,0.0,176000,1.984375,1.984375,0.6763617992401123
16-06-1980,1.953125,0.0,251200,1.984375,1.9765629768371582,0.6736990809440613
17-06-1980,1.953125,0.0,155200,1.9765629768371582,1.953125,0.6657105684280396
18-06-1980,1.9453129768371582,0.0,147200,1.9609379768371582,1.9609379768371582,0.6683736443519592
19-06-1980,1.9375,0.0,187200,1.9609379768371582,1.9375,0.6603847146034241
20-06-1980,1.9375,0.0,300800,1.9609379768371582,1.953125,0.6657105684280396
23-06-1980,1.9375,0.0,128000,1.953125,1.9375,0.6603847146034241
24-06-1980,1.9375,0.0,452800,1.953125,1.9375,0.6603847146034241
25-06-1980,1.9375,0.0,142400,1.9609379768371582,1.9609379768371582,0.6683736443519592
26-06-1980,1.9296879768371582,0.0,152000,1.953125,1.9375,0.6603847146034241
27-06-1980,1.9296879768371582,0.0,737600,1.9375,1.9375,0.6603847146034241
30-06-1980,1.84375,0.0,265600,1.9375,1.875,0.6390821933746338
01-07-1980,1.84375,0.0,1777600,1.890625,1.890625,0.6444073915481567
02-07-1980,1.875,0.0,489600,1.890625,1.8828129768371582,0.64174485206604
03-07-1980,1.890625,0.0,136000,1.921875,1.8984379768371582,0.6470708250999451
07-07-1980,1.9140629768371582,0.0,193600,1.9375,1.921875,0.6550592184066772
08-07-1980,1.9375,0.0,206400,1.953125,1.953125,0.6657105684280396
09-07-1980,1.9375,0.0,321600,1.9921879768371582,1.9921879768371582,0.6790244579315186
10-07-1980,1.96875,0.0,627200,2.023437976837158,2.0,0.6816875338554382
11-07-1980,1.984375,0.0,158400,2.015625,2.015625,0.6870132088661194
14-07-1980,2.0,0.0,190400,2.054687976837158,2.054687976837158,0.7003281116485596
15-07-1980,2.046875,0.0,291200,2.078125,2.070312976837158,0.7056530714035034
16-07-1980,2.046875,0.0,859200,2.070312976837158,2.070312976837158,0.7056530714035034
17-07-1980,2.0625,0.0,480000,2.085937976837158,2.078125,0.7083157300949097
18-07-1980,2.070312976837158,0.0,652800,2.148437976837158,2.132812976837158,0.7269559502601624
21-07-1980,2.132812976837158,0.0,268800,2.15625,2.15625,0.7349445223808289
22-07-1980,2.148437976837158,0.0,350400,2.171875,2.148437976837158,0.7322818040847778
23-07-1980,2.125,0.0,280000,2.15625,2.125,0.7242931127548218
24-07-1980,2.125,0.0,332800,2.140625,2.140625,0.7296186089515686
25-07-1980,2.125,0.0,121600,2.140625,2.132812976837158,0.7269559502601624
28-07-1980,2.125,0.0,355200,2.140625,2.140625,0.7296186089515686
29-07-1980,2.132812976837158,0.0,188800,2.171875,2.171875,0.7402697801589966
30-07-1980,2.1875,0.0,1552000,2.195312976837158,2.195312976837158,0.7482590675354004
31-07-1980,2.1875,0.0,1233600,2.210937976837158,2.210937976837158,0.753584086894989
01-08-1980,2.21875,0.0,305600,2.234375,2.226562976837158,0.7589095830917358
04-08-1980,2.21875,0.0,1603200,2.273437976837158,2.273437976837158,0.7748875021934509
05-08-1980,2.226562976837158,0.0,1168000,2.265625,2.25,0.7668987512588501
06-08-1980,2.242187976837158,0.0,254400,2.289062976837158,2.289062976837158,0.7802125215530396
07-08-1980,2.25,0.0,276800,2.273437976837158,2.257812976837158,0.7695613503456116
08-08-1980,2.257812976837158,0.0,598400,2.28125,2.273437976837158,0.7748875021934509
11-08-1980,2.25,0.0,259200,2.257812976837158,2.257812976837158,0.7695613503456116
12-08-1980,2.25,0.0,1137600,2.3125,2.273437976837158,0.7748875021934509
13-08-1980,2.257812976837158,0.0,140800,2.296875,2.265625,0.7722246050834656
14-08-1980,2.25,0.0,126400,2.265625,2.265625,0.7722246050834656
15-08-1980,2.257812976837158,0.0,195200,2.289062976837158,2.257812976837158,0.7695613503456116
18-08-1980,2.203125,0.0,299200,2.25,2.203125,0.7509211301803589
19-08-1980,2.171875,0.0,622400,2.203125,2.179687976837158,0.7429332137107849
20-08-1980,2.148437976837158,0.0,259200,2.195312976837158,2.195312976837158,0.7482590675354004
21-08-1980,2.25,0.0,745600,2.28125,2.265625,0.7722246050834656
22-08-1980,2.257812976837158,0.0,195200,2.28125,2.265625,0.7722246050834656
25-08-1980,2.25,0.0,91200,2.265625,2.25,0.7668987512588501
26-08-1980,2.25,0.0,254400,2.28125,2.265625,0.7722246050834656
27-08-1980,2.21875,0.0,336000,2.257812976837158,2.21875,0.7562472820281982
28-08-1980,2.171875,0.0,212800,2.203125,2.171875,0.7402697801589966
29-08-1980,2.15625,0.0,740800,2.1875,2.171875,0.7402697801589966
02-09-1980,2.171875,0.0,155200,2.195312976837158,2.1875,0.7455955147743225
03-09-1980,2.171875,0.0,1081600,2.265625,2.25,0.7668987512588501
04-09-1980,2.234375,0.0,416000,2.273437976837158,2.25,0.7668987512588501
05-09-1980,2.234375,0.0,731200,2.257812976837158,2.257812976837158,0.7695613503456116
08-09-1980,2.242187976837158,0.0,100800,2.265625,2.242187976837158,0.7642356753349304
09-09-1980,2.234375,0.0,91200,2.242187976837158,2.242187976837158,0.7642356753349304
10-09-1980,2.234375,0.0,83200,2.242187976837158,2.234375,0.7615727186203003
11-09-1980,2.234375,0.0,60800,2.25,2.25,0.7668987512588501
12-09-1980,2.242187976837158,0.0,128000,2.265625,2.265625,0.7722246050834656
15-09-1980,2.25,0.0,236800,2.273437976837158,2.25,0.7668987512588501
16-09-1980,2.25,0.0,96000,2.265625,2.265625,0.7722246050834656
17-09-1980,2.25,0.0,1672000,2.335937976837158,2.328125,0.793526828289032
18-09-1980,2.335937976837158,0.0,201600,2.367187976837158,2.34375,0.7988524436950684
19-09-1980,2.335937976837158,0.0,124800,2.351562976837158,2.34375,0.7988524436950684
22-09-1980,2.34375,0.0,264000,2.359375,2.351562976837158,0.8015155792236328
23-09-1980,2.335937976837158,0.0,488000,2.375,2.351562976837158,0.8015155792236328
24-09-1980,2.328125,0.0,148800,2.335937976837158,2.328125,0.793526828289032
25-09-1980,2.296875,0.0,265600,2.328125,2.304687976837158,0.7855385541915894
26-09-1980,2.273437976837158,0.0,352000,2.304687976837158,2.289062976837158,0.7802125215530396
29-09-1980,2.265625,0.0,428800,2.28125,2.28125,0.7775496244430542
30-09-1980,2.265625,0.0,124800,2.289062976837158,2.289062976837158,0.7802125215530396
01-10-1980,2.257812976837158,0.0,100800,2.28125,2.257812976837158,0.7695613503456116
02-10-1980,2.25,0.0,585600,2.273437976837158,2.273437976837158,0.7748875021934509
03-10-1980,2.265625,0.0,180800,2.289062976837158,2.28125,0.7775496244430542
06-10-1980,2.265625,0.0,121600,2.296875,2.265625,0.7722246050834656
07-10-1980,2.25,0.0,459200,2.265625,2.25,0.7668987512588501
08-10-1980,2.242187976837158,0.0,817600,2.28125,2.28125,0.7775496244430542
09-10-1980,2.25,0.0,443200,2.28125,2.265625,0.7722246050834656
10-10-1980,2.203125,0.0,796800,2.234375,2.226562976837158,0.7589095830917358
13-10-1980,2.210937976837158,0.0,97600,2.226562976837158,2.226562976837158,0.7589095830917358
14-10-1980,2.203125,0.0,224000,2.25,2.203125,0.7509211301803589
15-10-1980,2.1875,0.0,113600,2.203125,2.195312976837158,0.7482590675354004
16-10-1980,2.171875,0.0,425600,2.203125,2.1875,0.7455955147743225
17-10-1980,2.15625,0.0,300800,2.1875,2.1875,0.7455955147743225
20-10-1980,2.164062976837158,0.0,150400,2.1875,2.1875,0.7455955147743225
21-10-1980,2.1875,0.0,566400,2.25,2.25,0.7668987512588501
22-10-1980,2.210937976837158,0.0,172800,2.273437976837158,2.234375,0.7615727186203003
23-10-1980,2.234375,0.0,336000,2.265625,2.25,0.7668987512588501
24-10-1980,2.234375,0.0,168000,2.265625,2.265625,0.7722246050834656
27-10-1980,2.234375,0.0,521600,2.25,2.25,0.7668987512588501
28-10-1980,2.234375,0.0,376000,2.265625,2.257812976837158,0.7695613503456116
29-10-1980,2.25,0.0,251200,2.265625,2.265625,0.7722246050834656
30-10-1980,2.257812976837158,0.0,156800,2.273437976837158,2.265625,0.7722246050834656
31-10-1980,2.25,0.0,243200,2.265625,2.265625,0.7722246050834656
03-11-1980,2.226562976837158,0.0,1062400,2.28125,2.28125,0.7775496244430542
05-11-1980,2.273437976837158,0.0,1062400,2.359375,2.28125,0.7775496244430542
06-11-1980,2.28125,0.0,531200,2.3125,2.296875,0.782875657081604
07-11-1980,2.28125,0.0,579200,2.296875,2.28125,0.7775496244430542
10-11-1980,2.257812976837158,0.0,180800,2.28125,2.273437976837158,0.7748875021934509
11-11-1980,2.265625,0.0,867200,2.28125,2.265625,0.7722246050834656
12-11-1980,2.25,0.0,281600,2.28125,2.273437976837158,0.7748875021934509
13-11-1980,2.257812976837158,0.0,1980800,2.28125,2.273437976837158,0.7748875021934509
14-11-1980,2.273437976837158,0.0,702400,2.304687976837158,2.304687976837158,0.7855385541915894
17-11-1980,2.289062976837158,0.0,1176000,2.34375,2.328125,0.793526828289032
18-11-1980,2.328125,0.0,164800,2.351562976837158,2.335937976837158,0.7961897850036621
19-11-1980,2.320312976837158,0.0,241600,2.367187976837158,2.359375,0.8041781783103943
20-11-1980,2.34375,0.0,377600,2.421875,2.398437976837158,0.817492663860321
21-11-1980,2.3125,0.0,209600,2.398437976837158,2.359375,0.8041781783103943
24-11-1980,2.296875,0.0,243200,2.382812976837158,2.34375,0.7988524436950684
25-11-1980,2.296875,0.0,179200,2.351562976837158,2.3125,0.788200855255127
26-11-1980,2.195312976837158,0.0,377600,2.265625,2.203125,0.7509211301803589
28-11-1980,2.171875,0.0,323200,2.203125,2.1875,0.7455955147743225
01-12-1980,2.179687976837158,0.0,152000,2.203125,2.1875,0.7455955147743225
02-12-1980,2.171875,0.0,244800,2.203125,2.203125,0.7509211301803589
03-12-1980,2.1875,0.0,182400,2.25,2.25,0.7668987512588501
04-12-1980,2.21875,0.0,643200,2.265625,2.25,0.7668987512588501
05-12-1980,2.234375,0.0,235200,2.25,2.242187976837158,0.7642356753349304
08-12-1980,2.1875,0.0,385600,2.21875,2.203125,0.7509211301803589
09-12-1980,2.1875,0.0,528000,2.203125,2.1875,0.7455955147743225
10-12-1980,2.1875,0.0,206400,2.234375,2.195312976837158,0.7482590675354004
11-12-1980,2.15625,0.0,456000,2.203125,2.15625,0.7349445223808289
12-12-1980,2.148437976837158,0.0,57600,2.171875,2.15625,0.7349445223808289
15-12-1980,2.117187976837158,0.0,472000,2.148437976837158,2.117187976837158,0.7216298580169678
16-12-1980,2.046875,0.0,131200,2.101562976837158,2.0625,0.7029901742935181
17-12-1980,2.070312976837158,0.0,276800,2.101562976837158,2.085937976837158,0.7109791040420532
18-12-1980,2.0625,0.0,168000,2.078125,2.070312976837158,0.7056530714035034
19-12-1980,2.0625,0.0,504000,2.140625,2.140625,0.7296186089515686
22-12-1980,2.125,0.0,384000,2.164062976837158,2.164062976837158,0.7376075983047485
23-12-1980,2.140625,0.0,184000,2.1875,2.15625,0.7349445223808289
24-12-1980,2.132812976837158,0.0,1203200,2.242187976837158,2.242187976837158,0.7642356753349304
26-12-1980,2.226562976837158,0.0,97600,2.265625,2.25,0.7668987512588501
29-12-1980,2.234375,0.0,324800,2.304687976837158,2.265625,0.7722246050834656
30-12-1980,2.234375,0.0,1240000,2.328125,2.328125,0.793526828289032
31-12-1980,2.320312976837158,0.0,928000,2.546875,2.546875,0.8680862188339233
02-01-1981,2.5,0.0,483200,2.546875,2.546875,0.8680862188339233
05-01-1981,2.5,0.0,1252800,2.601562976837158,2.515625,0.8574351668357849
06-01-1981,2.40625,0.0,296000,2.5,2.421875,0.8254808187484741
07-01-1981,2.25,0.0,540800,2.375,2.359375,0.8041781783103943
08-01-1981,2.21875,0.0,680000,2.367187976837158,2.296875,0.782875657081604
09-01-1981,2.289062976837158,0.0,1307200,2.398437976837158,2.398437976837158,0.817492663860321
12-01-1981,2.4375,0.0,1108800,2.554687976837158,2.53125,0.8627611994743347
13-01-1981,2.5,0.0,276800,2.53125,2.515625,0.8574351668357849
14-01-1981,2.5,0.0,1025600,2.578125,2.523437976837158,0.860098123550415
15-01-1981,2.5,0.0,310400,2.53125,2.515625,0.8574351668357849
16-01-1981,2.507812976837158,0.0,820800,2.640625,2.640625,0.9000405073165894
19-01-1981,2.578125,0.0,768000,2.65625,2.625,0.8947147130966187
20-01-1981,2.640625,0.0,822400,2.671875,2.664062976837158,0.9080293774604797
21-01-1981,2.625,0.0,2556800,2.703125,2.6875,0.9160181283950806
22-01-1981,2.609375,0.0,1601600,2.765625,2.640625,0.9000405073165894
23-01-1981,2.578125,0.0,1859200,2.640625,2.625,0.8947147130966187
26-01-1981,2.5625,0.0,329600,2.601562976837158,2.5625,0.873412549495697
27-01-1981,2.5625,0.0,753600,2.59375,2.585937976837158,0.8814000487327576
28-01-1981,2.578125,0.0,358400,2.648437976837158,2.625,0.8947147130966187
29-01-1981,2.625,0.0,262400,2.6875,2.65625,0.9053657054901123
30-01-1981,2.640625,0.0,358400,2.695312976837158,2.664062976837158,0.9080293774604797
02-02-1981,2.578125,0.0,187200,2.648437976837158,2.59375,0.8840636610984802
03-02-1981,2.578125,0.0,313600,2.640625,2.625,0.8947147130966187
04-02-1981,2.570312976837158,0.0,601600,2.65625,2.578125,0.8787376284599304
05-02-1981,2.570312976837158,0.0,201600,2.625,2.625,0.8947147130966187
06-02-1981,2.625,0.0,532800,2.71875,2.710937976837158,0.924005925655365
09-02-1981,2.664062976837158,0.0,464000,2.71875,2.703125,0.9213435649871826
10-02-1981,2.6875,0.0,472000,2.71875,2.703125,0.9213435649871826
11-02-1981,2.65625,0.0,617600,2.703125,2.6875,0.9160181283950806
12-02-1981,2.625,0.0,196800,2.679687976837158,2.679687976837158,0.9133551716804504
13-02-1981,2.609375,0.0,156800,2.671875,2.640625,0.9000405073165894
17-02-1981,2.601562976837158,0.0,345600,2.65625,2.609375,0.8893886208534241
18-02-1981,2.5625,0.0,428800,2.640625,2.59375,0.8840636610984802
19-02-1981,2.53125,0.0,601600,2.59375,2.546875,0.8680862188339233
20-02-1981,2.539062976837158,0.0,329600,2.554687976837158,2.546875,0.8680862188339233
23-02-1981,2.546875,0.0,427200,2.585937976837158,2.585937976837158,0.8814000487327576
24-02-1981,2.59375,0.0,334400,2.632812976837158,2.625,0.8947147130966187
25-02-1981,2.609375,0.0,4424000,2.9375,2.9375,1.0012283325195312
26-02-1981,2.875,0.0,5041600,3.09375,3.046875,1.038508415222168
27-02-1981,2.992187976837158,0.0,3398400,3.15625,3.15625,1.075787901878357
02-03-1981,3.140625,0.0,3272000,3.234375,3.210937976837158,1.0944281816482544
03-03-1981,3.09375,0.0,3803200,3.234375,3.148437976837158,1.0731251239776611
04-03-1981,3.0625,0.0,1982400,3.125,3.125,1.0651371479034424
05-03-1981,2.984375,0.0,1225600,3.117187976837158,3.0,1.0225317478179932
06-03-1981,2.890625,0.0,1899200,3.039062976837158,3.03125,1.033182978630066
09-03-1981,2.96875,0.0,712000,3.0625,3.0625,1.0438342094421387
10-03-1981,2.9375,0.0,497600,3.046875,2.960937976837158,1.0092170238494873
11-03-1981,2.914062976837158,0.0,1625600,2.984375,2.96875,1.011879801750183
12-03-1981,2.9375,0.0,1329600,3.09375,3.078125,1.0491600036621094
13-03-1981,3.09375,0.0,1672000,3.140625,3.125,1.0651371479034424
16-03-1981,3.0625,0.0,566400,3.140625,3.109375,1.0598105192184448
17-03-1981,3.117187976837158,0.0,2062400,3.1875,3.164062976837158,1.0784512758255005
18-03-1981,3.125,0.0,1782400,3.296875,3.21875,1.0970908403396606
19-03-1981,3.171875,0.0,648000,3.265625,3.171875,1.0811134576797485
20-03-1981,3.15625,0.0,884800,3.25,3.195312976837158,1.0891015529632568
23-03-1981,3.171875,0.0,368000,3.234375,3.21875,1.0970908403396606
24-03-1981,3.125,0.0,760000,3.25,3.179687976837158,1.0837762355804443
25-03-1981,3.171875,0.0,6833600,3.492187976837158,3.453125,1.1769764423370361
26-03-1981,3.34375,0.0,2190400,3.46875,3.34375,1.1396961212158203
27-03-1981,3.328125,0.0,1571200,3.460937976837158,3.390625,1.1556733846664429
30-03-1981,3.28125,0.0,1011200,3.398437976837158,3.28125,1.118393898010254
31-03-1981,3.328125,0.0,1208000,3.398437976837158,3.382812976837158,1.1530109643936157
01-04-1981,3.335937976837158,0.0,1326400,3.4375,3.40625,1.160998821258545
02-04-1981,3.28125,0.0,723200,3.421875,3.359375,1.145021915435791
03-04-1981,3.28125,0.0,817600,3.367187976837158,3.296875,1.123719573020935
06-04-1981,3.3125,0.0,2217600,3.609375,3.609375,1.2302329540252686
07-04-1981,3.515625,0.0,2635200,3.640625,3.546875,1.208930492401123
08-04-1981,3.46875,0.0,968000,3.585937976837158,3.484375,1.1876271963119507
09-04-1981,3.46875,0.0,2723200,3.5625,3.515625,1.1982784271240234
10-04-1981,3.46875,0.0,1227200,3.5625,3.5625,1.2142562866210938
13-04-1981,3.5625,0.0,1553600,3.609375,3.578125,1.2195817232131958
14-04-1981,3.484375,0.0,555200,3.5625,3.5,1.19295334815979
15-04-1981,3.4375,0.0,665600,3.507812976837158,3.492187976837158,1.190290093421936
16-04-1981,3.476562976837158,0.0,716800,3.523437976837158,3.523437976837158,1.2009414434432983
20-04-1981,3.492187976837158,0.0,400000,3.53125,3.515625,1.1982784271240234
21-04-1981,3.296875,0.0,1460800,3.523437976837158,3.296875,1.123719573020935
22-04-1981,3.28125,0.0,824000,3.367187976837158,3.320312976837158,1.131707787513733
23-04-1981,3.3125,0.0,907200,3.421875,3.382812976837158,1.1530109643936157
24-04-1981,3.34375,0.0,995200,3.421875,3.40625,1.160998821258545
27-04-1981,3.375,0.0,1088000,3.453125,3.40625,1.160998821258545
28-04-1981,3.234375,0.0,592000,3.390625,3.289062976837158,1.121056079864502
29-04-1981,3.15625,0.0,633600,3.25,3.179687976837158,1.0837762355804443
30-04-1981,3.164062976837158,0.0,756800,3.210937976837158,3.1875,1.086439609527588
01-05-1981,3.171875,0.0,1225600,3.296875,3.25,1.1077419519424438
04-05-1981,3.171875,0.0,536000,3.25,3.195312976837158,1.0891015529632568
05-05-1981,3.09375,0.0,937600,3.140625,3.101562976837158,1.0571484565734863
06-05-1981,3.109375,0.0,716800,3.15625,3.117187976837158,1.062474012374878
07-05-1981,3.109375,0.0,876800,3.203125,3.1875,1.086439609527588
08-05-1981,3.164062976837158,0.0,827200,3.203125,3.1875,1.086439609527588
11-05-1981,3.101562976837158,0.0,372800,3.210937976837158,3.101562976837158,1.0571484565734863
12-05-1981,3.0625,0.0,782400,3.109375,3.078125,1.0491600036621094
13-05-1981,3.046875,0.0,374400,3.125,3.09375,1.0544853210449219
14-05-1981,3.078125,0.0,1054400,3.203125,3.125,1.0651371479034424
15-05-1981,3.109375,0.0,748800,3.15625,3.140625,1.0704619884490967
18-05-1981,3.117187976837158,0.0,348800,3.148437976837158,3.132812976837158,1.0678000450134277
19-05-1981,3.125,0.0,654400,3.203125,3.1875,1.086439609527588
20-05-1981,3.203125,0.0,1464000,3.40625,3.398437976837158,1.1583362817764282
21-05-1981,3.320312976837158,0.0,801600,3.398437976837158,3.375,1.1503477096557617
22-05-1981,3.296875,0.0,388800,3.367187976837158,3.328125,1.1343703269958496
26-05-1981,3.289062976837158,0.0,444800,3.328125,3.328125,1.1343703269958496
27-05-1981,3.265625,0.0,400000,3.359375,3.273437976837158,1.1157306432724
28-05-1981,3.234375,0.0,273600,3.296875,3.234375,1.1024166345596313
29-05-1981,3.171875,0.0,212800,3.21875,3.203125,1.09176504611969
01-06-1981,3.140625,0.0,1132800,3.242187976837158,3.140625,1.0704619884490967
02-06-1981,3.0,0.0,675200,3.125,3.0625,1.0438342094421387
03-06-1981,2.9375,0.0,411200,3.046875,2.960937976837158,1.0092170238494873
04-06-1981,2.945312976837158,0.0,344000,2.976562976837158,2.96875,1.011879801750183
05-06-1981,2.921875,0.0,1054400,3.039062976837158,3.03125,1.033182978630066
08-06-1981,3.015625,0.0,347200,3.078125,3.03125,1.033182978630066
09-06-1981,3.0,0.0,750400,3.078125,3.046875,1.038508415222168
10-06-1981,3.0,0.0,369600,3.085937976837158,3.0625,1.0438342094421387
11-06-1981,3.078125,0.0,139200,3.15625,3.15625,1.075787901878357
12-06-1981,3.085937976837158,0.0,171200,3.140625,3.09375,1.0544853210449219
15-06-1981,3.078125,0.0,233600,3.140625,3.140625,1.0704619884490967
16-06-1981,3.101562976837158,0.0,150400,3.132812976837158,3.109375,1.0598105192184448
17-06-1981,3.054687976837158,0.0,256000,3.09375,3.078125,1.0491600036621094
18-06-1981,3.007812976837158,0.0,185600,3.078125,3.015625,1.0278571844100952
19-06-1981,2.9375,0.0,196800,3.0,2.953125,1.0065538883209229
22-06-1981,2.9375,0.0,363200,2.984375,2.960937976837158,1.0092170238494873
23-06-1981,2.945312976837158,0.0,195200,2.992187976837158,2.96875,1.011879801750183
24-06-1981,2.90625,0.0,224000,2.976562976837158,2.9375,1.0012283325195312
25-06-1981,2.921875,0.0,192000,2.960937976837158,2.9375,1.0012283325195312
26-06-1981,2.828125,0.0,332800,2.929687976837158,2.875,0.9799250960350037
29-06-1981,2.875,0.0,454400,2.921875,2.914062976837158,0.9932404160499573
30-06-1981,2.914062976837158,0.0,284800,2.960937976837158,2.9375,1.0012283325195312
01-07-1981,2.921875,0.0,190400,2.953125,2.945312976837158,1.003891110420227
02-07-1981,2.921875,0.0,67200,2.953125,2.9375,1.0012283325195312
06-07-1981,2.890625,0.0,198400,2.929687976837158,2.90625,0.990577220916748
07-07-1981,2.796875,0.0,302400,2.898437976837158,2.804687976837158,0.9559604525566101
08-07-1981,2.742187976837158,0.0,870400,2.8125,2.765625,0.942646324634552
09-07-1981,2.71875,0.0,662400,2.75,2.75,0.9373204708099365
10-07-1981,2.710937976837158,0.0,360000,2.757812976837158,2.71875,0.9266690015792847
13-07-1981,2.6875,0.0,428800,2.726562976837158,2.695312976837158,0.9186808466911316
14-07-1981,2.6875,0.0,577600,2.710937976837158,2.703125,0.9213435649871826
15-07-1981,2.695312976837158,0.0,2560000,2.875,2.796875,0.9532973170280457
16-07-1981,2.796875,0.0,1044800,2.835937976837158,2.835937976837158,0.9666124582290649
17-07-1981,2.828125,0.0,542400,2.898437976837158,2.84375,0.9692744016647339
20-07-1981,2.75,0.0,889600,2.84375,2.765625,0.942646324634552
21-07-1981,2.742187976837158,0.0,651200,2.8125,2.742187976837158,0.9346575736999512
22-07-1981,2.703125,0.0,379200,2.765625,2.703125,0.9213435649871826
23-07-1981,2.671875,0.0,664000,2.757812976837158,2.726562976837158,0.9293317198753357
24-07-1981,2.71875,0.0,174400,2.765625,2.75,0.9373204708099365
27-07-1981,2.71875,0.0,350400,2.78125,2.71875,0.9266690015792847
28-07-1981,2.703125,0.0,1201600,2.78125,2.78125,0.9479714632034302
29-07-1981,2.78125,0.0,1441600,2.835937976837158,2.796875,0.9532973170280457
30-07-1981,2.773437976837158,0.0,329600,2.820312976837158,2.789062976837158,0.9506350159645081
31-07-1981,2.78125,0.0,241600,2.8125,2.78125,0.9479714632034302
03-08-1981,2.773437976837158,0.0,460800,2.8125,2.796875,0.9532973170280457
04-08-1981,2.757812976837158,0.0,310400,2.8125,2.796875,0.9532973170280457
05-08-1981,2.796875,0.0,454400,2.890625,2.890625,0.9852516651153564
06-08-1981,2.859375,0.0,1337600,2.945312976837158,2.875,0.9799250960350037
07-08-1981,2.835937976837158,0.0,129600,2.890625,2.851562976837158,0.9719375371932983
10-08-1981,2.835937976837158,0.0,798400,2.875,2.875,0.9799250960350037
11-08-1981,2.890625,0.0,822400,2.96875,2.953125,1.0065538883209229
12-08-1981,2.875,0.0,324800,2.984375,2.882812976837158,0.9825887084007263
13-08-1981,2.835937976837158,0.0,112000,2.875,2.859375,0.9746001362800598
14-08-1981,2.851562976837158,0.0,268800,2.929687976837158,2.90625,0.990577220916748
17-08-1981,2.851562976837158,0.0,265600,2.921875,2.882812976837158,0.9825887084007263
18-08-1981,2.8125,0.0,1198400,2.882812976837158,2.835937976837158,0.9666124582290649
19-08-1981,2.828125,0.0,326400,2.859375,2.859375,0.9746001362800598
20-08-1981,2.851562976837158,0.0,166400,2.867187976837158,2.851562976837158,0.9719375371932983
21-08-1981,2.828125,0.0,675200,2.859375,2.835937976837158,0.9666124582290649
24-08-1981,2.828125,0.0,747200,2.851562976837158,2.851562976837158,0.9719375371932983
25-08-1981,2.835937976837158,0.0,464000,2.898437976837158,2.882812976837158,0.9825887084007263
26-08-1981,2.867187976837158,0.0,120000,2.890625,2.867187976837158,0.9772633910179138
27-08-1981,2.867187976837158,0.0,112000,2.875,2.867187976837158,0.9772633910179138
28-08-1981,2.867187976837158,0.0,248000,2.875,2.867187976837158,0.9772633910179138
31-08-1981,2.859375,0.0,196800,2.867187976837158,2.859375,0.9746001362800598
01-09-1981,2.867187976837158,0.0,342400,2.875,2.867187976837158,0.9772633910179138
02-09-1981,2.875,0.0,153600,2.898437976837158,2.882812976837158,0.9825887084007263
03-09-1981,2.859375,0.0,315200,2.890625,2.859375,0.9746001362800598
04-09-1981,2.796875,0.0,465600,2.84375,2.8125,0.9586230516433716
08-09-1981,2.65625,0.0,449600,2.789062976837158,2.695312976837158,0.9186808466911316
09-09-1981,2.664062976837158,0.0,278400,2.703125,2.6875,0.9160181283950806
10-09-1981,2.6875,0.0,217600,2.757812976837158,2.726562976837158,0.9293317198753357
11-09-1981,2.6875,0.0,230400,2.726562976837158,2.703125,0.9213435649871826
14-09-1981,2.695312976837158,0.0,393600,2.71875,2.710937976837158,0.924005925655365
15-09-1981,2.703125,0.0,355200,2.75,2.703125,0.9213435649871826
16-09-1981,2.703125,0.0,403200,2.734375,2.734375,0.9319943785667419
17-09-1981,2.710937976837158,0.0,89600,2.734375,2.710937976837158,0.924005925655365
18-09-1981,2.632812976837158,0.0,1006400,2.703125,2.640625,0.9000405073165894
21-09-1981,2.640625,0.0,283200,2.648437976837158,2.648437976837158,0.902703583240509
22-09-1981,2.632812976837158,0.0,240000,2.648437976837158,2.648437976837158,0.902703583240509
23-09-1981,2.59375,0.0,523200,2.625,2.609375,0.8893886208534241
24-09-1981,2.578125,0.0,484800,2.640625,2.59375,0.8840636610984802
25-09-1981,2.460937976837158,0.0,366400,2.59375,2.46875,0.8414578437805176
28-09-1981,2.390625,0.0,694400,2.546875,2.546875,0.8680862188339233
29-09-1981,2.5625,0.0,737600,2.625,2.5625,0.873412549495697
30-09-1981,2.5,0.0,313600,2.554687976837158,2.515625,0.8574351668357849
01-10-1981,2.453125,0.0,964800,2.523437976837158,2.492187976837158,0.8494465351104736
02-10-1981,2.476562976837158,0.0,2206400,2.523437976837158,2.523437976837158,0.860098123550415
05-10-1981,2.476562976837158,0.0,516800,2.53125,2.492187976837158,0.8494465351104736
06-10-1981,2.421875,0.0,513600,2.492187976837158,2.4375,0.8308060169219971
07-10-1981,2.40625,0.0,182400,2.4375,2.421875,0.8254808187484741
08-10-1981,2.40625,0.0,644800,2.460937976837158,2.453125,0.836132824420929
09-10-1981,2.421875,0.0,329600,2.453125,2.4375,0.8308060169219971
12-10-1981,2.414062976837158,0.0,387200,2.4375,2.4375,0.8308060169219971
13-10-1981,2.421875,0.0,110400,2.445312976837158,2.429687976837158,0.8281440138816833
14-10-1981,2.421875,0.0,70400,2.4375,2.421875,0.8254808187484741
15-10-1981,2.421875,0.0,132800,2.4375,2.429687976837158,0.8281440138816833
16-10-1981,2.429687976837158,0.0,1144000,2.453125,2.429687976837158,0.8281440138816833
19-10-1981,2.414062976837158,0.0,216000,2.445312976837158,2.445312976837158,0.8334696888923645
20-10-1981,2.390625,0.0,1475200,2.421875,2.390625,0.8148292303085327
21-10-1981,2.375,0.0,419200,2.414062976837158,2.390625,0.8148292303085327
22-10-1981,2.3125,0.0,283200,2.382812976837158,2.34375,0.7988524436950684
23-10-1981,2.289062976837158,0.0,372800,2.359375,2.296875,0.782875657081604
26-10-1981,2.289062976837158,0.0,108800,2.328125,2.304687976837158,0.7855385541915894
27-10-1981,2.304687976837158,0.0,153600,2.367187976837158,2.351562976837158,0.8015155792236328
28-10-1981,2.351562976837158,0.0,648000,2.421875,2.382812976837158,0.8121671676635742
29-10-1981,2.351562976837158,0.0,318400,2.382812976837158,2.359375,0.8041781783103943
30-10-1981,2.351562976837158,0.0,491200,2.390625,2.390625,0.8148292303085327
02-11-1981,2.414062976837158,0.0,1241600,2.46875,2.4375,0.8308060169219971
03-11-1981,2.445312976837158,0.0,411200,2.53125,2.53125,0.8627611994743347
04-11-1981,2.5,0.0,1062400,2.53125,2.507812976837158,0.854772686958313
05-11-1981,2.507812976837158,0.0,451200,2.5625,2.546875,0.8680862188339233
06-11-1981,2.515625,0.0,161600,2.570312976837158,2.5625,0.873412549495697
09-11-1981,2.539062976837158,0.0,91200,2.570312976837158,2.570312976837158,0.876075029373169
10-11-1981,2.59375,0.0,137600,2.617187976837158,2.59375,0.8840636610984802
11-11-1981,2.59375,0.0,331200,2.617187976837158,2.617187976837158,0.8920518755912781
12-11-1981,2.59375,0.0,236800,2.640625,2.609375,0.8893886208534241
13-11-1981,2.53125,0.0,358400,2.59375,2.554687976837158,0.8707497119903564
16-11-1981,2.453125,0.0,284800,2.53125,2.476562976837158,0.8441210389137268
17-11-1981,2.46875,0.0,500800,2.5,2.492187976837158,0.8494465351104736
18-11-1981,2.46875,0.0,926400,2.5,2.46875,0.8414578437805176
19-11-1981,2.460937976837158,0.0,518400,2.484375,2.476562976837158,0.8441210389137268
20-11-1981,2.476562976837158,0.0,86400,2.5,2.5,0.8521092534065247
23-11-1981,2.445312976837158,0.0,190400,2.492187976837158,2.460937976837158,0.8387956023216248
24-11-1981,2.445312976837158,0.0,150400,2.46875,2.460937976837158,0.8387956023216248
25-11-1981,2.445312976837158,0.0,1275200,2.484375,2.453125,0.836132824420929
27-11-1981,2.453125,0.0,196800,2.476562976837158,2.476562976837158,0.8441210389137268
30-11-1981,2.460937976837158,0.0,275200,2.53125,2.515625,0.8574351668357849
01-12-1981,2.453125,0.0,657600,2.523437976837158,2.484375,0.846783459186554
02-12-1981,2.445312976837158,0.0,364800,2.507812976837158,2.484375,0.846783459186554
03-12-1981,2.476562976837158,0.0,422400,2.515625,2.515625,0.8574351668357849
04-12-1981,2.5,0.0,1816000,2.53125,2.515625,0.8574351668357849
07-12-1981,2.46875,0.0,400000,2.53125,2.492187976837158,0.8494465351104736
08-12-1981,2.460937976837158,0.0,201600,2.492187976837158,2.46875,0.8414578437805176
09-12-1981,2.460937976837158,0.0,347200,2.492187976837158,2.484375,0.846783459186554
10-12-1981,2.460937976837158,0.0,403200,2.5,2.492187976837158,0.8494465351104736
11-12-1981,2.484375,0.0,281600,2.515625,2.515625,0.8574351668357849
14-12-1981,2.4375,0.0,860800,2.492187976837158,2.453125,0.836132824420929
15-12-1981,2.390625,0.0,264000,2.453125,2.445312976837158,0.8334696888923645
16-12-1981,2.4375,0.0,113600,2.453125,2.445312976837158,0.8334696888923645
17-12-1981,2.4375,0.0,363200,2.453125,2.4375,0.8308060169219971
18-12-1981,2.421875,0.0,209600,2.445312976837158,2.421875,0.8254808187484741
21-12-1981,2.375,0.0,670400,2.4375,2.375,0.809503436088562
22-12-1981,2.359375,0.0,240000,2.390625,2.375,0.809503436088562
23-12-1981,2.351562976837158,0.0,388800,2.382812976837158,2.375,0.809503436088562
24-12-1981,2.367187976837158,0.0,520000,2.382812976837158,2.382812976837158,0.8121671676635742
28-12-1981,2.3125,0.0,1014400,2.375,2.3125,0.788200855255127
29-12-1981,2.3125,0.0,248000,2.328125,2.3125,0.788200855255127
30-12-1981,2.3125,0.0,195200,2.335937976837158,2.328125,0.793526828289032
31-12-1981,2.21875,0.0,580800,2.375,2.359375,0.8041781783103943
04-01-1982,2.335937976837158,0.0,728000,2.367187976837158,2.367187976837158,0.8068410158157349
05-01-1982,2.296875,0.0,278400,2.359375,2.328125,0.793526828289032
06-01-1982,2.289062976837158,0.0,336000,2.328125,2.328125,0.793526828289032
07-01-1982,2.28125,0.0,408000,2.335937976837158,2.296875,0.782875657081604
08-01-1982,2.257812976837158,0.0,228800,2.3125,2.265625,0.7722246050834656
11-01-1982,2.1875,0.0,5382400,2.265625,2.1875,0.7455955147743225
12-01-1982,2.15625,0.0,358400,2.210937976837158,2.203125,0.7509211301803589
13-01-1982,2.171875,0.0,507200,2.21875,2.1875,0.7455955147743225
14-01-1982,2.15625,0.0,177600,2.179687976837158,2.179687976837158,0.7429332137107849
15-01-1982,2.140625,0.0,291200,2.1875,2.15625,0.7349445223808289
18-01-1982,2.0,0.0,10244800,2.132812976837158,2.0625,0.7029901742935181
19-01-1982,2.039062976837158,0.0,312000,2.085937976837158,2.054687976837158,0.7003281116485596
20-01-1982,2.023437976837158,0.0,492800,2.0625,2.046875,0.6976644992828369
21-01-1982,2.023437976837158,0.0,321600,2.046875,2.046875,0.6976644992828369
22-01-1982,2.0,0.0,1499200,2.03125,2.03125,0.692338764667511
25-01-1982,2.0,0.0,403200,2.03125,2.015625,0.6870132088661194
26-01-1982,1.96875,0.0,1643200,2.015625,2.0,0.6816875338554382
27-01-1982,1.9921879768371582,0.0,345600,2.007812976837158,2.007812976837158,0.6843503713607788
28-01-1982,1.9921879768371582,0.0,492800,2.039062976837158,2.039062976837158,0.6950015425682068
29-01-1982,2.0625,0.0,1184000,2.09375,2.085937976837158,0.7109791040420532
01-02-1982,2.03125,0.0,243200,2.078125,2.046875,0.6976644992828369
02-02-1982,2.007812976837158,0.0,283200,2.0625,2.0625,0.7029901742935181
03-02-1982,2.039062976837158,0.0,523200,2.070312976837158,2.070312976837158,0.7056530714035034
04-02-1982,2.046875,0.0,222400,2.078125,2.078125,0.7083157300949097
05-02-1982,2.070312976837158,0.0,353600,2.148437976837158,2.148437976837158,0.7322818040847778
08-02-1982,2.078125,0.0,721600,2.125,2.078125,0.7083157300949097
09-02-1982,2.015625,0.0,203200,2.046875,2.039062976837158,0.6950015425682068
10-02-1982,2.015625,0.0,596800,2.039062976837158,2.039062976837158,0.6950015425682068
11-02-1982,1.9296879768371582,0.0,480000,2.039062976837158,1.953125,0.6657105684280396
12-02-1982,1.9375,0.0,304000,1.9765629768371582,1.9765629768371582,0.6736990809440613
16-02-1982,1.9375,0.0,512000,1.984375,1.984375,0.6763617992401123
17-02-1982,1.9609379768371582,0.0,233600,2.0,1.9765629768371582,0.6736990809440613
18-02-1982,1.9375,0.0,363200,1.9765629768371582,1.9765629768371582,0.6736990809440613
19-02-1982,1.9453129768371582,0.0,192000,1.984375,1.96875,0.6710360646247864
22-02-1982,1.9375,0.0,1331200,2.023437976837158,1.9453129768371582,0.6630479097366333
23-02-1982,1.9453129768371582,0.0,182400,1.96875,1.9609379768371582,0.6683736443519592
24-02-1982,1.921875,0.0,2142400,1.9609379768371582,1.953125,0.6657105684280396
25-02-1982,1.953125,0.0,889600,1.9765629768371582,1.953125,0.6657105684280396
26-02-1982,1.9453129768371582,0.0,939200,1.96875,1.9609379768371582,0.6683736443519592
01-03-1982,1.9375,0.0,419200,1.96875,1.9375,0.6603847146034241
02-03-1982,1.921875,0.0,336000,1.953125,1.9296879768371582,0.6577221155166626
03-03-1982,1.890625,0.0,409600,1.9296879768371582,1.90625,0.649733304977417
04-03-1982,1.8828129768371582,0.0,235200,1.921875,1.890625,0.6444073915481567
05-03-1982,1.875,0.0,265600,1.90625,1.875,0.6390821933746338
08-03-1982,1.84375,0.0,560000,1.8828129768371582,1.84375,0.6284302473068237
09-03-1982,1.8125,0.0,1928000,1.8515629768371582,1.828125,0.6231052875518799
10-03-1982,1.8203129768371582,0.0,656000,1.859375,1.859375,0.6337565183639526
11-03-1982,1.84375,0.0,712000,1.9375,1.9375,0.6603847146034241
12-03-1982,1.90625,0.0,336000,1.9609379768371582,1.9609379768371582,0.6683736443519592
15-03-1982,1.9453129768371582,0.0,176000,2.0,1.9921879768371582,0.6790244579315186
16-03-1982,1.9765629768371582,0.0,998400,2.007812976837158,2.007812976837158,0.6843503713607788
17-03-1982,1.96875,0.0,952000,2.023437976837158,2.0,0.6816875338554382
18-03-1982,1.9375,0.0,616000,2.0,1.96875,0.6710360646247864
19-03-1982,1.9375,0.0,812800,1.96875,1.96875,0.6710360646247864
22-03-1982,1.9375,0.0,342400,1.96875,1.9609379768371582,0.6683736443519592
23-03-1982,1.9609379768371582,0.0,1097600,2.015625,1.9921879768371582,0.6790244579315186
24-03-1982,2.0,0.0,291200,2.03125,2.015625,0.6870132088661194
25-03-1982,1.96875,0.0,1993600,2.0,1.9921879768371582,0.6790244579315186
26-03-1982,1.953125,0.0,265600,1.9921879768371582,1.9609379768371582,0.6683736443519592
29-03-1982,1.9609379768371582,0.0,44800,1.984375,1.984375,0.6763617992401123
30-03-1982,1.9765629768371582,0.0,248000,2.007812976837158,1.9921879768371582,0.6790244579315186
31-03-1982,1.96875,0.0,72000,1.984375,1.9765629768371582,0.6736990809440613
01-04-1982,1.96875,0.0,228800,2.0,2.0,0.6816875338554382
02-04-1982,1.9765629768371582,0.0,385600,2.015625,2.007812976837158,0.6843503713607788
05-04-1982,2.0,0.0,372800,2.03125,2.007812976837158,0.6843503713607788
06-04-1982,2.007812976837158,0.0,211200,2.023437976837158,2.015625,0.6870132088661194
07-04-1982,2.007812976837158,0.0,254400,2.03125,2.03125,0.692338764667511
08-04-1982,2.015625,0.0,155200,2.046875,2.023437976837158,0.6896763443946838
12-04-1982,2.007812976837158,0.0,131200,2.039062976837158,2.023437976837158,0.6896763443946838
13-04-1982,2.023437976837158,0.0,312000,2.046875,2.039062976837158,0.6950015425682068
14-04-1982,2.023437976837158,0.0,408000,2.054687976837158,2.054687976837158,0.7003281116485596
15-04-1982,2.0,0.0,2214400,2.054687976837158,2.007812976837158,0.6843503713607788
16-04-1982,1.984375,0.0,672000,2.015625,2.0,0.6816875338554382
19-04-1982,1.9921879768371582,0.0,412800,2.015625,2.015625,0.6870132088661194
20-04-1982,2.0,0.0,228800,2.015625,2.015625,0.6870132088661194
21-04-1982,2.0,0.0,352000,2.03125,2.015625,0.6870132088661194
22-04-1982,2.0,0.0,467200,2.03125,2.015625,0.6870132088661194
23-04-1982,2.007812976837158,0.0,787200,2.054687976837158,2.054687976837158,0.7003281116485596
26-04-1982,2.070312976837158,0.0,516800,2.117187976837158,2.117187976837158,0.7216298580169678
27-04-1982,2.109375,0.0,404800,2.15625,2.117187976837158,0.7216298580169678
28-04-1982,2.117187976837158,0.0,116800,2.148437976837158,2.125,0.7242931127548218
29-04-1982,2.078125,0.0,249600,2.125,2.085937976837158,0.7109791040420532
30-04-1982,2.046875,0.0,862400,2.132812976837158,2.132812976837158,0.7269559502601624
03-05-1982,2.09375,0.0,3374400,2.164062976837158,2.15625,0.7349445223808289
04-05-1982,2.101562976837158,0.0,3448000,2.15625,2.117187976837158,0.7216298580169678
05-05-1982,2.09375,0.0,745600,2.140625,2.117187976837158,0.7216298580169678
06-05-1982,2.101562976837158,0.0,491200,2.140625,2.109375,0.7189674377441406
07-05-1982,2.09375,0.0,235200,2.125,2.109375,0.7189674377441406
10-05-1982,2.09375,0.0,78400,2.125,2.101562976837158,0.7163047194480896
11-05-1982,2.101562976837158,0.0,164800,2.140625,2.132812976837158,0.7269559502601624
12-05-1982,2.117187976837158,0.0,316800,2.171875,2.140625,0.7296186089515686
13-05-1982,2.0625,0.0,2137600,2.148437976837158,2.078125,0.7083157300949097
14-05-1982,2.0625,0.0,3348800,2.109375,2.109375,0.7189674377441406
17-05-1982,2.09375,0.0,280000,2.125,2.109375,0.7189674377441406
18-05-1982,2.101562976837158,0.0,369600,2.125,2.109375,0.7189674377441406
19-05-1982,2.109375,0.0,539200,2.15625,2.125,0.7242931127548218
20-05-1982,2.101562976837158,0.0,315200,2.140625,2.140625,0.7296186089515686
21-05-1982,2.09375,0.0,737600,2.140625,2.125,0.7242931127548218
24-05-1982,2.09375,0.0,81600,2.125,2.101562976837158,0.7163047194480896
25-05-1982,2.070312976837158,0.0,195200,2.109375,2.085937976837158,0.7109791040420532
26-05-1982,2.070312976837158,0.0,376000,2.09375,2.070312976837158,0.7056530714035034
27-05-1982,2.015625,0.0,241600,2.070312976837158,2.070312976837158,0.7056530714035034
28-05-1982,2.054687976837158,0.0,100800,2.085937976837158,2.078125,0.7083157300949097
01-06-1982,1.96875,0.0,196800,2.085937976837158,1.984375,0.6763617992401123
02-06-1982,1.984375,0.0,427200,2.03125,2.03125,0.692338764667511
03-06-1982,2.0,0.0,928000,2.078125,2.015625,0.6870132088661194
04-06-1982,1.921875,0.0,1617600,2.0,1.9375,0.6603847146034241
07-06-1982,1.9140629768371582,0.0,307200,1.953125,1.921875,0.6550592184066772
08-06-1982,1.890625,0.0,337600,1.921875,1.8984379768371582,0.6470708250999451
09-06-1982,1.828125,0.0,2569600,1.890625,1.8359379768371582,0.6257679462432861
10-06-1982,1.8203129768371582,0.0,107200,1.875,1.8671879768371582,0.6364189982414246
11-06-1982,1.8984379768371582,0.0,646400,1.9140629768371582,1.9140629768371582,0.6523963212966919
14-06-1982,1.890625,0.0,726400,1.921875,1.921875,0.6550592184066772
15-06-1982,1.890625,0.0,846400,1.921875,1.921875,0.6550592184066772
16-06-1982,1.921875,0.0,409600,1.9453129768371582,1.9375,0.6603847146034241
17-06-1982,1.90625,0.0,161600,1.9296879768371582,1.9296879768371582,0.6577221155166626
18-06-1982,1.90625,0.0,121600,1.9453129768371582,1.921875,0.6550592184066772
21-06-1982,1.8828129768371582,0.0,140800,1.921875,1.8984379768371582,0.6470708250999451
22-06-1982,1.8828129768371582,0.0,100800,1.90625,1.90625,0.649733304977417
23-06-1982,1.9140629768371582,0.0,182400,1.9609379768371582,1.953125,0.6657105684280396
24-06-1982,1.953125,0.0,635200,1.9921879768371582,1.9609379768371582,0.6683736443519592
25-06-1982,1.9453129768371582,0.0,168000,1.984375,1.9765629768371582,0.6736990809440613
28-06-1982,1.984375,0.0,752000,2.023437976837158,2.0,0.6816875338554382
29-06-1982,2.0,0.0,566400,2.09375,2.09375,0.713641345500946
30-06-1982,2.03125,0.0,728000,2.085937976837158,2.078125,0.7083157300949097
01-07-1982,2.0625,0.0,1262400,2.085937976837158,2.085937976837158,0.7109791040420532
02-07-1982,2.070312976837158,0.0,228800,2.078125,2.078125,0.7083157300949097
06-07-1982,2.046875,0.0,910400,2.085937976837158,2.046875,0.6976644992828369
07-07-1982,2.0,0.0,244800,2.0625,2.0,0.6816875338554382
08-07-1982,2.0,0.0,256000,2.046875,2.039062976837158,0.6950015425682068
09-07-1982,2.039062976837158,0.0,971200,2.0625,2.0625,0.7029901742935181
12-07-1982,2.046875,0.0,321600,2.09375,2.0625,0.7029901742935181
13-07-1982,2.046875,0.0,1595200,2.070312976837158,2.046875,0.6976644992828369
14-07-1982,2.0,0.0,80000,2.03125,2.015625,0.6870132088661194
15-07-1982,2.0,0.0,219200,2.046875,2.03125,0.692338764667511
16-07-1982,2.0,0.0,1366400,2.03125,2.023437976837158,0.6896763443946838
19-07-1982,2.03125,0.0,1960000,2.0625,2.046875,0.6976644992828369
20-07-1982,2.046875,0.0,907200,2.09375,2.085937976837158,0.7109791040420532
21-07-1982,2.09375,0.0,1259200,2.179687976837158,2.171875,0.7402697801589966
22-07-1982,2.164062976837158,0.0,206400,2.21875,2.203125,0.7509211301803589
23-07-1982,2.171875,0.0,185600,2.226562976837158,2.1875,0.7455955147743225
26-07-1982,2.1875,0.0,324800,2.242187976837158,2.242187976837158,0.7642356753349304
27-07-1982,2.210937976837158,0.0,184000,2.226562976837158,2.226562976837158,0.7589095830917358
28-07-1982,2.132812976837158,0.0,358400,2.21875,2.140625,0.7296186089515686
29-07-1982,2.109375,0.0,401600,2.203125,2.203125,0.7509211301803589
30-07-1982,2.195312976837158,0.0,336000,2.226562976837158,2.226562976837158,0.7589095830917358
02-08-1982,2.21875,0.0,564800,2.28125,2.273437976837158,0.7748875021934509
03-08-1982,2.234375,0.0,1036800,2.28125,2.25,0.7668987512588501
04-08-1982,2.140625,0.0,4504000,2.203125,2.148437976837158,0.7322818040847778
05-08-1982,2.09375,0.0,241600,2.140625,2.117187976837158,0.7216298580169678
06-08-1982,2.03125,0.0,753600,2.117187976837158,2.03125,0.692338764667511
09-08-1982,2.007812976837158,0.0,225600,2.054687976837158,2.054687976837158,0.7003281116485596
10-08-1982,2.046875,0.0,363200,2.078125,2.078125,0.7083157300949097
11-08-1982,2.070312976837158,0.0,219200,2.085937976837158,2.078125,0.7083157300949097
12-08-1982,2.070312976837158,0.0,756800,2.101562976837158,2.085937976837158,0.7109791040420532
13-08-1982,2.085937976837158,0.0,801600,2.117187976837158,2.109375,0.7189674377441406
16-08-1982,2.101562976837158,0.0,670400,2.132812976837158,2.117187976837158,0.7216298580169678
17-08-1982,2.125,0.0,614400,2.179687976837158,2.179687976837158,0.7429332137107849
18-08-1982,2.25,0.0,2147200,2.34375,2.296875,0.782875657081604
19-08-1982,2.28125,0.0,1566400,2.3125,2.3125,0.788200855255127
20-08-1982,2.328125,0.0,1852800,2.484375,2.4375,0.8308060169219971
23-08-1982,2.414062976837158,0.0,1672000,2.5,2.421875,0.8254808187484741
24-08-1982,2.375,0.0,1491200,2.4375,2.40625,0.8201557397842407
25-08-1982,2.375,0.0,1664000,2.507812976837158,2.4375,0.8308060169219971
26-08-1982,2.40625,0.0,1835200,2.53125,2.445312976837158,0.8334696888923645
27-08-1982,2.375,0.0,1766400,2.453125,2.40625,0.8201557397842407
30-08-1982,2.40625,0.0,1560000,2.515625,2.515625,0.8574351668357849
31-08-1982,2.53125,0.0,1078400,2.59375,2.53125,0.8627611994743347
01-09-1982,2.515625,0.0,611200,2.5625,2.515625,0.8574351668357849
02-09-1982,2.390625,0.0,681600,2.523437976837158,2.476562976837158,0.8441210389137268
03-09-1982,2.492187976837158,0.0,932800,2.554687976837158,2.539062976837158,0.8654237389564514
07-09-1982,2.53125,0.0,1057600,2.5625,2.546875,0.8680862188339233
08-09-1982,2.53125,0.0,369600,2.554687976837158,2.53125,0.8627611994743347
09-09-1982,2.53125,0.0,905600,2.554687976837158,2.53125,0.8627611994743347
10-09-1982,2.445312976837158,0.0,1099200,2.53125,2.484375,0.846783459186554
13-09-1982,2.40625,0.0,2040000,2.492187976837158,2.484375,0.846783459186554
14-09-1982,2.476562976837158,0.0,827200,2.539062976837158,2.484375,0.846783459186554
15-09-1982,2.453125,0.0,534400,2.515625,2.515625,0.8574351668357849
16-09-1982,2.460937976837158,0.0,1214400,2.53125,2.492187976837158,0.8494465351104736
17-09-1982,2.445312976837158,0.0,1208000,2.515625,2.46875,0.8414578437805176
20-09-1982,2.4375,0.0,584000,2.492187976837158,2.492187976837158,0.8494465351104736
21-09-1982,2.476562976837158,0.0,1401600,2.515625,2.515625,0.8574351668357849
22-09-1982,2.578125,0.0,2398400,2.617187976837158,2.585937976837158,0.8814000487327576
23-09-1982,2.539062976837158,0.0,457600,2.5625,2.5625,0.873412549495697
24-09-1982,2.53125,0.0,444800,2.5625,2.5625,0.873412549495697
27-09-1982,2.53125,0.0,627200,2.5625,2.546875,0.8680862188339233
28-09-1982,2.546875,0.0,1088000,2.59375,2.546875,0.8680862188339233
29-09-1982,2.5,0.0,868800,2.5625,2.5,0.8521092534065247
30-09-1982,2.421875,0.0,380800,2.484375,2.460937976837158,0.8387956023216248
01-10-1982,2.445312976837158,0.0,617600,2.5,2.5,0.8521092534065247
04-10-1982,2.476562976837158,0.0,1147200,2.515625,2.507812976837158,0.854772686958313
05-10-1982,2.5,0.0,1032000,2.53125,2.515625,0.8574351668357849
06-10-1982,2.515625,0.0,1368000,2.570312976837158,2.5625,0.873412549495697
07-10-1982,2.5625,0.0,841600,2.625,2.609375,0.8893886208534241
08-10-1982,2.578125,0.0,324800,2.609375,2.59375,0.8840636610984802
11-10-1982,2.585937976837158,0.0,542400,2.640625,2.617187976837158,0.8920518755912781
12-10-1982,2.625,0.0,1148800,2.679687976837158,2.679687976837158,0.9133551716804504
13-10-1982,2.671875,0.0,668800,2.84375,2.828125,0.9639484286308289
14-10-1982,2.65625,0.0,795200,2.84375,2.65625,0.9053657054901123
15-10-1982,2.59375,0.0,521600,2.65625,2.632812976837158,0.897377610206604
18-10-1982,2.648437976837158,0.0,326400,2.734375,2.734375,0.9319943785667419
19-10-1982,2.75,0.0,448000,2.8125,2.804687976837158,0.9559604525566101
20-10-1982,2.8125,0.0,1268800,2.9375,2.875,0.9799250960350037
21-10-1982,2.914062976837158,0.0,7321600,3.023437976837158,2.96875,1.011879801750183
22-10-1982,3.046875,0.0,2614400,3.140625,3.070312976837158,1.0464973449707031
25-10-1982,2.875,0.0,764800,3.0625,2.890625,0.9852516651153564
26-10-1982,2.828125,0.0,988800,2.921875,2.921875,0.9959025382995605
27-10-1982,2.984375,0.0,780800,3.070312976837158,3.070312976837158,1.0464973449707031
28-10-1982,3.054687976837158,0.0,1020800,3.085937976837158,3.0625,1.0438342094421387
29-10-1982,2.96875,0.0,1156800,3.070312976837158,3.007812976837158,1.0251940488815308
01-11-1982,2.945312976837158,0.0,1216000,3.007812976837158,3.0,1.0225317478179932
02-11-1982,2.976562976837158,0.0,1259200,3.039062976837158,3.015625,1.0278571844100952
03-11-1982,3.015625,0.0,1827200,3.179687976837158,3.15625,1.075787901878357
04-11-1982,3.234375,0.0,2828800,3.351562976837158,3.25,1.1077419519424438
05-11-1982,3.09375,0.0,1425600,3.335937976837158,3.335937976837158,1.1370328664779663
08-11-1982,3.1875,0.0,732800,3.304687976837158,3.273437976837158,1.1157306432724
09-11-1982,3.21875,0.0,1198400,3.296875,3.21875,1.0970908403396606
10-11-1982,3.21875,0.0,739200,3.273437976837158,3.234375,1.1024166345596313
11-11-1982,3.15625,0.0,705600,3.21875,3.164062976837158,1.0784512758255005
12-11-1982,3.164062976837158,0.0,312000,3.203125,3.171875,1.0811134576797485
15-11-1982,3.03125,0.0,1032000,3.171875,3.0625,1.0438342094421387
16-11-1982,3.015625,0.0,918400,3.09375,3.0625,1.0438342094421387
17-11-1982,3.078125,0.0,1840000,3.140625,3.109375,1.0598105192184448
18-11-1982,3.09375,0.0,504000,3.148437976837158,3.140625,1.0704619884490967
19-11-1982,3.109375,0.0,796800,3.1875,3.109375,1.0598105192184448
22-11-1982,3.078125,0.0,769600,3.210937976837158,3.078125,1.0491600036621094
23-11-1982,2.921875,0.0,617600,3.125,2.921875,0.9959025382995605
24-11-1982,2.9375,0.0,529600,3.0625,3.039062976837158,1.035845398902893
26-11-1982,3.054687976837158,0.0,344000,3.125,3.109375,1.0598105192184448
29-11-1982,3.117187976837158,0.0,272000,3.171875,3.140625,1.0704619884490967
30-11-1982,3.109375,0.0,496000,3.171875,3.140625,1.0704619884490967
01-12-1982,3.1875,0.0,611200,3.234375,3.203125,1.09176504611969
02-12-1982,3.203125,0.0,649600,3.28125,3.234375,1.1024166345596313
03-12-1982,3.1875,0.0,412800,3.25,3.21875,1.0970908403396606
06-12-1982,3.21875,0.0,459200,3.265625,3.25,1.1077419519424438
07-12-1982,3.25,0.0,1816000,3.3125,3.265625,1.113068699836731
08-12-1982,3.21875,0.0,244800,3.28125,3.21875,1.0970908403396606
09-12-1982,3.15625,0.0,126400,3.1875,3.15625,1.075787901878357
10-12-1982,3.078125,0.0,145600,3.179687976837158,3.09375,1.0544853210449219
13-12-1982,2.984375,0.0,572800,3.0625,3.0,1.0225317478179932
14-12-1982,3.0,0.0,286400,3.078125,3.0,1.0225317478179932
15-12-1982,2.96875,0.0,160000,3.0,2.976562976837158,1.014543056488037
16-12-1982,2.882812976837158,0.0,1177600,2.96875,2.945312976837158,1.003891110420227
17-12-1982,3.015625,0.0,291200,3.09375,3.09375,1.0544853210449219
20-12-1982,3.046875,0.0,868800,3.09375,3.078125,1.0491600036621094
21-12-1982,3.078125,0.0,160000,3.109375,3.109375,1.0598105192184448
22-12-1982,3.109375,0.0,694400,3.234375,3.234375,1.1024166345596313
23-12-1982,3.265625,0.0,291200,3.3125,3.28125,1.118393898010254
27-12-1982,3.109375,0.0,803200,3.28125,3.210937976837158,1.0944281816482544
28-12-1982,3.203125,0.0,744000,3.328125,3.296875,1.123719573020935
29-12-1982,3.234375,0.0,473600,3.304687976837158,3.28125,1.118393898010254
30-12-1982,3.265625,0.0,315200,3.3125,3.265625,1.113068699836731
31-12-1982,3.210937976837158,0.0,145600,3.25,3.234375,1.1024166345596313
03-01-1983,3.140625,0.0,499200,3.171875,3.15625,1.075787901878357
04-01-1983,3.140625,0.0,353600,3.21875,3.21875,1.0970908403396606
05-01-1983,3.234375,0.0,515200,3.296875,3.257812976837158,1.1104059219360352
06-01-1983,3.265625,0.0,1033600,3.46875,3.421875,1.1663246154785156
07-01-1983,3.421875,0.0,2430400,3.609375,3.570312976837158,1.2169182300567627
10-01-1983,3.46875,0.0,899200,3.539062976837158,3.5,1.19295334815979
11-01-1983,3.453125,0.0,830400,3.515625,3.5,1.19295334815979
12-01-1983,3.359375,0.0,593600,3.5,3.359375,1.145021915435791
13-01-1983,3.265625,0.0,724800,3.390625,3.382812976837158,1.1530109643936157
14-01-1983,3.28125,0.0,454400,3.40625,3.40625,1.160998821258545
17-01-1983,3.382812976837158,0.0,652800,3.414062976837158,3.390625,1.1556733846664429
18-01-1983,3.375,0.0,288000,3.484375,3.484375,1.1876271963119507
19-01-1983,3.375,0.0,1323200,3.492187976837158,3.453125,1.1769764423370361
20-01-1983,3.328125,0.0,425600,3.429687976837158,3.359375,1.145021915435791
21-01-1983,3.257812976837158,0.0,241600,3.359375,3.28125,1.118393898010254
24-01-1983,3.15625,0.0,656000,3.242187976837158,3.21875,1.0970908403396606
25-01-1983,3.171875,0.0,332800,3.296875,3.21875,1.0970908403396606
26-01-1983,3.21875,0.0,328000,3.265625,3.234375,1.1024166345596313
27-01-1983,3.265625,0.0,484800,3.40625,3.359375,1.145021915435791
28-01-1983,3.375,0.0,462400,3.429687976837158,3.40625,1.160998821258545
31-01-1983,3.40625,0.0,1908800,3.445312976837158,3.429687976837158,1.1689878702163696
01-02-1983,3.375,0.0,1342400,3.453125,3.375,1.1503477096557617
02-02-1983,3.34375,0.0,249600,3.398437976837158,3.375,1.1503477096557617
03-02-1983,3.351562976837158,0.0,200000,3.40625,3.390625,1.1556733846664429
04-02-1983,3.34375,0.0,1100800,3.421875,3.40625,1.160998821258545
07-02-1983,3.390625,0.0,1614400,3.460937976837158,3.421875,1.1663246154785156
08-02-1983,3.359375,0.0,667200,3.421875,3.375,1.1503477096557617
09-02-1983,3.3125,0.0,299200,3.375,3.367187976837158,1.147684931755066
10-02-1983,3.375,0.0,784000,3.40625,3.40625,1.160998821258545
11-02-1983,3.390625,0.0,768000,3.414062976837158,3.40625,1.160998821258545
14-02-1983,3.390625,0.0,532800,3.40625,3.390625,1.1556733846664429
15-02-1983,3.328125,0.0,1260800,3.390625,3.34375,1.1396961212158203
16-02-1983,3.34375,0.0,881600,3.398437976837158,3.375,1.1503477096557617
17-02-1983,3.34375,0.0,2440000,3.421875,3.390625,1.1556733846664429
18-02-1983,3.375,0.0,846400,3.421875,3.375,1.1503477096557617
22-02-1983,3.375,0.0,1120000,3.40625,3.398437976837158,1.1583362817764282
23-02-1983,3.34375,0.0,1406400,3.398437976837158,3.398437976837158,1.1583362817764282
24-02-1983,3.414062976837158,0.0,2683200,3.5625,3.5625,1.2142562866210938
25-02-1983,3.53125,0.0,2368000,3.601562976837158,3.539062976837158,1.2062671184539795
28-02-1983,3.578125,0.0,1920000,3.625,3.617187976837158,1.232896327972412
01-03-1983,3.625,0.0,1411200,3.703125,3.6875,1.2568604946136475
02-03-1983,3.695312976837158,0.0,1604800,3.75,3.742187976837158,1.2755017280578613
03-03-1983,3.71875,0.0,1451200,3.765625,3.71875,1.2675130367279053
04-03-1983,3.671875,0.0,840000,3.734375,3.703125,1.2621866464614868
07-03-1983,3.703125,0.0,425600,3.734375,3.71875,1.2675130367279053
08-03-1983,3.65625,0.0,1718400,3.734375,3.65625,1.2462105751037598
09-03-1983,3.640625,0.0,366400,3.6875,3.671875,1.2515356540679932
10-03-1983,3.6875,0.0,595200,3.726562976837158,3.6875,1.2568604946136475
11-03-1983,3.671875,0.0,548800,3.695312976837158,3.695312976837158,1.259523630142212
14-03-1983,3.671875,0.0,542400,3.734375,3.726562976837158,1.2701760530471802
15-03-1983,3.695312976837158,0.0,740800,3.726562976837158,3.726562976837158,1.2701760530471802
16-03-1983,3.734375,0.0,1308800,3.757812976837158,3.75,1.2781643867492676
17-03-1983,3.75,0.0,859200,3.828125,3.8125,1.299466609954834
18-03-1983,3.8125,0.0,1619200,4.0,3.984375,1.358048439025879
21-03-1983,3.875,0.0,937600,3.976562976837158,3.90625,1.331421136856079
22-03-1983,3.90625,0.0,1076800,3.96875,3.9375,1.3420721292495728
23-03-1983,3.921875,0.0,940800,3.960937976837158,3.921875,1.336747169494629
24-03-1983,3.875,0.0,536000,3.929687976837158,3.890625,1.3260958194732666
25-03-1983,3.859375,0.0,564800,3.898437976837158,3.875,1.3207694292068481
28-03-1983,3.859375,0.0,416000,3.898437976837158,3.890625,1.3260958194732666
29-03-1983,3.859375,0.0,576000,3.890625,3.859375,1.315443992614746
30-03-1983,3.789062976837158,0.0,403200,3.867187976837158,3.820312976837158,1.3021289110183716
31-03-1983,3.835937976837158,0.0,547200,3.875,3.84375,1.3101184368133545
04-04-1983,3.84375,0.0,168000,3.875,3.859375,1.315443992614746
05-04-1983,3.84375,0.0,947200,3.875,3.859375,1.315443992614746
06-04-1983,3.8125,3.84375,960000,3.859375,3.84375,1.3101184368133545
07-04-1983,3.828125,3.859375,464000,3.859375,3.84375,1.3101184368133545
08-04-1983,3.75,3.84375,219200,3.84375,3.765625,1.2834892272949219
11-04-1983,3.75,3.765625,387200,3.796875,3.765625,1.2834892272949219
12-04-1983,3.78125,3.796875,313600,3.828125,3.828125,1.3047925233840942
13-04-1983,3.84375,3.84375,401600,3.90625,3.90625,1.331421136856079
14-04-1983,3.914062976837158,3.9375,316800,3.953125,3.9375,1.3420721292495728
15-04-1983,3.914062976837158,3.953125,286400,3.960937976837158,3.914062976837158,1.334083914756775
18-04-1983,3.888672113418579,3.914062976837158,337600,3.929687976837158,3.929687976837158,1.3394099473953247
19-04-1983,3.898437976837158,3.929687976837158,494400,3.976562976837158,3.976562976837158,1.3553863763809204
20-04-1983,3.96875,3.976562976837158,198400,3.992187976837158,3.984375,1.358048439025879
21-04-1983,3.953125,3.984375,465600,4.015625,3.953125,1.347397804260254
22-04-1983,3.9375,3.960937976837158,182400,4.0,3.953125,1.347397804260254
25-04-1983,3.90625,3.953125,468800,4.0,3.96875,1.3527235984802246
26-04-1983,3.96875,3.992187976837158,272000,4.015625,4.0,1.3633750677108765
27-04-1983,4.0,4.046875,387200,4.09375,4.023437976837158,1.3713635206222534
28-04-1983,4.015625,4.03125,571200,4.046875,4.039062976837158,1.3766894340515137
29-04-1983,4.039062976837158,4.0625,619200,4.085937976837158,4.085937976837158,1.3926666975021362
02-05-1983,4.046875,4.085937976837158,670400,4.117187976837158,4.054687976837158,1.382015585899353
03-05-1983,4.0,4.023437976837158,428800,4.039062976837158,4.039062976837158,1.3766894340515137
04-05-1983,3.976562976837158,4.007812976837158,451200,4.03125,3.992187976837158,1.373249888420105
05-05-1983,3.921875,3.96875,740800,4.007812976837158,3.9375,1.3544378280639648
06-05-1983,3.953125,3.953125,803200,4.078125,4.046875,1.392061710357666
09-05-1983,4.0,4.015625,553600,4.0625,4.054687976837158,1.3947488069534302
10-05-1983,4.03125,4.070312976837158,492800,4.070312976837158,4.03125,1.386686086654663
11-05-1983,4.0,4.039062976837158,252800,4.046875,4.023437976837158,1.3839986324310303
12-05-1983,3.96875,4.023437976837158,396800,4.03125,3.976562976837158,1.3678749799728394
13-05-1983,3.960937976837158,3.992187976837158,225600,3.992187976837158,3.984375,1.3705614805221558
16-05-1983,3.9375,3.96875,356800,4.0,4.0,1.3759366273880005
17-05-1983,3.976562976837158,4.0,288000,4.015625,4.015625,1.3813111782073975
18-05-1983,4.007812976837158,4.007812976837158,825600,4.140625,4.03125,1.386686086654663
19-05-1983,3.921875,3.984375,1417600,3.984375,3.953125,1.3598124980926514
20-05-1983,3.9375,3.953125,321600,4.007812976837158,4.007812976837158,1.378624677658081
23-05-1983,4.007812976837158,4.015625,488000,4.0625,4.039062976837158,1.3893738985061646
24-05-1983,4.046875,4.046875,355200,4.117187976837158,4.117187976837158,1.4162472486495972
25-05-1983,4.078125,4.09375,580800,4.117187976837158,4.109375,1.4135605096817017
26-05-1983,4.078125,4.09375,1388800,4.25,4.203125,1.4458082914352417
27-05-1983,4.15625,4.203125,209600,4.203125,4.164062976837158,1.432370901107788
31-05-1983,4.078125,4.164062976837158,601600,4.171875,4.09375,1.4081847667694092
01-06-1983,4.0625,4.0625,488000,4.101562976837158,4.101562976837158,1.410873293876648
02-06-1983,3.984375,4.109375,366400,4.117187976837158,4.03125,1.386686086654663
03-06-1983,3.96875,4.015625,1065600,4.046875,4.03125,1.386686086654663
06-06-1983,4.054687976837158,4.0625,5444800,4.078125,4.070312976837158,1.4001238346099854
07-06-1983,4.03125,4.085937976837158,457600,4.085937976837158,4.046875,1.392061710357666
08-06-1983,4.007812976837158,4.046875,444800,4.054687976837158,4.007812976837158,1.378624677658081
09-06-1983,3.984375,4.015625,427200,4.023437976837158,4.007812976837158,1.378624677658081
10-06-1983,4.015625,4.023437976837158,1878400,4.0625,4.0625,1.3974353075027466
13-06-1983,4.0625,4.0625,1062400,4.09375,4.078125,1.4028103351593018
14-06-1983,4.078125,4.078125,272000,4.109375,4.109375,1.4135605096817017
15-06-1983,4.101562976837158,4.109375,592000,4.125,4.117187976837158,1.4162472486495972
16-06-1983,4.125,4.125,628800,4.15625,4.15625,1.4296839237213135
17-06-1983,4.125,4.15625,1081600,4.164062976837158,4.125,1.4189344644546509
20-06-1983,4.101562976837158,4.109375,222400,4.140625,4.117187976837158,1.4162472486495972
21-06-1983,4.046875,4.101562976837158,340800,4.117187976837158,4.09375,1.4081847667694092
22-06-1983,4.0625,4.085937976837158,435200,4.109375,4.09375,1.4081847667694092
23-06-1983,4.070312976837158,4.09375,145600,4.109375,4.070312976837158,1.4001238346099854
24-06-1983,4.0625,4.070312976837158,212800,4.09375,4.09375,1.4081847667694092
27-06-1983,4.0625,4.070312976837158,609600,4.085937976837158,4.078125,1.4028103351593018
28-06-1983,4.046875,4.09375,428800,4.109375,4.046875,1.392061710357666
29-06-1983,3.9375,4.039062976837158,1552000,4.039062976837158,3.9375,1.3544378280639648
30-06-1983,3.921875,3.9375,534400,3.984375,3.96875,1.3651872873306274
01-07-1983,3.953125,3.953125,947200,4.023437976837158,4.023437976837158,1.3839986324310303
05-07-1983,3.96875,4.007812976837158,155200,4.007812976837158,3.992187976837158,1.373249888420105
06-07-1983,3.9375,3.96875,217600,3.992187976837158,3.984375,1.3705614805221558
07-07-1983,3.921875,3.984375,452800,3.984375,3.96875,1.3651872873306274
08-07-1983,3.960937976837158,3.96875,152000,3.984375,3.984375,1.3705614805221558
11-07-1983,3.976562976837158,3.984375,395200,3.992187976837158,3.976562976837158,1.3678749799728394
12-07-1983,3.90625,3.976562976837158,569600,3.976562976837158,3.90625,1.3436883687973022
13-07-1983,3.859375,3.890625,291200,3.921875,3.867187976837158,1.3302514553070068
14-07-1983,3.875,3.90625,419200,3.9375,3.898437976837158,1.341001033782959
15-07-1983,3.8125,3.90625,329600,3.914062976837158,3.828125,1.3168144226074219
18-07-1983,3.78125,3.804687976837158,827200,3.828125,3.8125,1.311439037322998
19-07-1983,3.796875,3.804687976837158,497600,3.820312976837158,3.8125,1.311439037322998
20-07-1983,3.8125,3.8125,633600,3.875,3.875,1.3329386711120605
21-07-1983,4.0,4.03125,681600,4.03125,4.0,1.3759366273880005
22-07-1983,4.015625,4.070312976837158,747200,4.125,4.125,1.4189344644546509
25-07-1983,4.148437976837158,4.148437976837158,441600,4.210937976837158,4.210937976837158,1.448495626449585
26-07-1983,4.21875,4.21875,814400,4.3125,4.3125,1.4834318161010742
27-07-1983,4.1875,4.3125,531200,4.3125,4.195312976837158,1.4431216716766357
28-07-1983,4.0625,4.203125,384000,4.210937976837158,4.085937976837158,1.405498743057251
29-07-1983,3.953125,4.03125,771200,4.054687976837158,3.992187976837158,1.373249888420105
01-08-1983,3.867187976837158,3.90625,1000000,3.921875,3.914062976837158,1.3463752269744873
02-08-1983,3.90625,3.9375,254400,3.953125,3.914062976837158,1.3463752269744873
03-08-1983,3.84375,3.890625,656000,3.90625,3.875,1.3329386711120605
04-08-1983,3.65625,3.796875,812800,3.84375,3.710937976837158,1.2898180484771729
05-08-1983,3.6875,3.6875,881600,3.757812976837158,3.734375,1.2979638576507568
08-08-1983,3.703125,3.703125,472000,3.828125,3.734375,1.2979638576507568
09-08-1983,3.65625,3.765625,2072000,3.765625,3.671875,1.2762408256530762
10-08-1983,3.5,3.640625,1752000,3.640625,3.53125,1.2273638248443604
11-08-1983,3.5,3.53125,923200,3.609375,3.5625,1.2382255792617798
12-08-1983,3.578125,3.59375,320000,3.65625,3.632812976837158,1.2626646757125854
15-08-1983,3.664062976837158,3.664062976837158,304000,3.765625,3.75,1.3033956289291382
16-08-1983,3.632812976837158,3.75,900800,3.75,3.671875,1.2762408256530762
17-08-1983,3.65625,3.65625,868800,3.75,3.734375,1.2979638576507568
18-08-1983,3.703125,3.765625,305600,3.796875,3.710937976837158,1.2898180484771729
19-08-1983,3.703125,3.71875,187200,3.742187976837158,3.734375,1.2979638576507568
22-08-1983,3.734375,3.742187976837158,1060800,3.8125,3.742187976837158,1.3006805181503296
23-08-1983,3.75,3.773437976837158,288000,3.8125,3.789062976837158,1.3169726133346558
24-08-1983,3.726562976837158,3.765625,225600,3.765625,3.734375,1.2979638576507568
25-08-1983,3.710937976837158,3.71875,550400,3.8125,3.804687976837158,1.3224027156829834
26-08-1983,3.8125,3.8125,433600,3.90625,3.90625,1.3577032089233398
29-08-1983,3.882812976837158,3.921875,259200,3.960937976837158,3.945312976837158,1.3712798357009888
30-08-1983,3.953125,3.953125,1729600,4.070312976837158,4.0,1.3902875185012817
31-08-1983,3.96875,3.96875,924800,3.984375,3.984375,1.3848570585250854
01-09-1983,3.96875,3.96875,502400,4.0625,4.046875,1.4065804481506348
02-09-1983,4.046875,4.0625,310400,4.125,4.125,1.4337350130081177
06-09-1983,4.15625,4.171875,457600,4.203125,4.1875,1.4554579257965088
07-09-1983,4.21875,4.21875,1228800,4.335937976837158,4.335937976837158,1.50705087184906
08-09-1983,4.320312976837158,4.34375,628800,4.375,4.359375,1.5151963233947754
09-09-1983,4.28125,4.359375,2353600,4.375,4.28125,1.4880427122116089
12-09-1983,4.25,4.296875,604800,4.375,4.257812976837158,1.479896068572998
13-09-1983,4.125,4.265625,381600,4.265625,4.1875,1.4554579257965088
14-09-1983,4.15625,4.21875,126400,4.21875,4.203125,1.460888147354126
15-09-1983,4.1875,4.203125,356800,4.21875,4.21875,1.4663196802139282
16-09-1983,4.0625,4.1875,581600,4.1875,4.09375,1.4228732585906982
19-09-1983,4.09375,4.125,172800,4.21875,4.171875,1.4500271081924438
20-09-1983,4.140625,4.140625,395200,4.25,4.25,1.4771806001663208
21-09-1983,4.203125,4.25,999200,4.46875,4.46875,1.5532126426696777
22-09-1983,4.375,4.46875,1304000,4.46875,4.4375,1.5423510074615479
23-09-1983,4.40625,4.421875,452800,4.546875,4.546875,1.5803664922714233
26-09-1983,4.46875,4.546875,338400,4.578125,4.484375,1.5586434602737427
27-09-1983,4.4375,4.5,402400,4.53125,4.5,1.5640746355056763
28-09-1983,4.453125,4.46875,150400,4.53125,4.453125,1.5477814674377441
29-09-1983,4.34375,4.4375,211200,4.5,4.34375,1.5097663402557373
30-09-1983,4.09375,4.28125,1076800,4.28125,4.109375,1.4283030033111572
03-10-1983,4.015625,4.109375,313600,4.109375,4.109375,1.4283030033111572
04-10-1983,4.078125,4.078125,366400,4.265625,4.234375,1.4717504978179932
05-10-1983,4.15625,4.1875,376000,4.25,4.25,1.4771806001663208
06-10-1983,4.21875,4.25,899200,4.390625,4.34375,1.5097663402557373
07-10-1983,4.5625,4.5625,759200,4.625,4.609375,1.6020902395248413
10-10-1983,4.515625,4.5625,546400,4.5625,4.515625,1.569504976272583
11-10-1983,4.5,4.5625,453600,4.59375,4.5,1.5640746355056763
12-10-1983,4.46875,4.5,406400,4.578125,4.5625,1.5857973098754883
13-10-1983,4.5625,4.625,558400,4.65625,4.578125,1.591228723526001
14-10-1983,4.515625,4.5625,148000,4.609375,4.546875,1.5803664922714233
17-10-1983,4.375,4.53125,324000,4.53125,4.40625,1.5314892530441284
18-10-1983,4.375,4.515625,324000,4.53125,4.40625,1.5314892530441284
19-10-1983,4.375,4.421875,2216000,4.5625,4.40625,1.5314892530441284
20-10-1983,4.40625,4.4375,604800,4.53125,4.46875,1.5532126426696777
21-10-1983,4.453125,4.453125,1336000,4.5625,4.53125,1.5749362707138062
24-10-1983,4.5,4.53125,313600,4.578125,4.5625,1.5857973098754883
25-10-1983,4.53125,4.5625,668800,4.59375,4.546875,1.5803664922714233
26-10-1983,4.453125,4.546875,351200,4.578125,4.515625,1.569504976272583
27-10-1983,4.484375,4.5,41600,4.5625,4.484375,1.5586434602737427
28-10-1983,4.484375,4.484375,607200,4.53125,4.5,1.5640746355056763
31-10-1983,4.515625,4.53125,478400,4.59375,4.5625,1.5857973098754883
01-11-1983,4.4375,4.578125,793600,4.578125,4.46875,1.5532126426696777
02-11-1983,4.453125,4.46875,877600,4.5625,4.546875,1.5803664922714233
03-11-1983,4.453125,4.53125,236000,4.53125,4.46875,1.56699800491333
04-11-1983,4.34375,4.375,336800,4.453125,4.34375,1.523165225982666
07-11-1983,4.25,4.375,408000,4.40625,4.28125,1.5012494325637817
08-11-1983,4.203125,4.28125,435200,4.28125,4.203125,1.4738534688949585
09-11-1983,4.203125,4.234375,176800,4.28125,4.25,1.4902923107147217
10-11-1983,4.1875,4.25,495200,4.28125,4.203125,1.4738534688949585
11-11-1983,4.21875,4.234375,1606400,4.3125,4.3125,1.51220703125
14-11-1983,4.328125,4.328125,616000,4.4375,4.375,1.5341236591339111
15-11-1983,4.34375,4.359375,920800,4.390625,4.34375,1.523165225982666
16-11-1983,4.296875,4.3125,454400,4.40625,4.40625,1.5450814962387085
17-11-1983,4.359375,4.359375,792000,4.421875,4.390625,1.5396028757095337
18-11-1983,4.328125,4.359375,531200,4.390625,4.390625,1.5396028757095337
21-11-1983,4.375,4.421875,281600,4.4375,4.40625,1.5450814962387085
22-11-1983,4.40625,4.4375,636800,4.5625,4.53125,1.5889137983322144
23-11-1983,4.546875,4.546875,619200,4.65625,4.578125,1.6053507328033447
25-11-1983,4.59375,4.625,273600,4.625,4.59375,1.6108299493789673
28-11-1983,4.53125,4.59375,770400,4.625,4.5625,1.599871039390564
29-11-1983,4.4375,4.5625,1019200,4.5625,4.4375,1.5560401678085327
30-11-1983,4.46875,4.5,844000,4.546875,4.515625,1.5834341049194336
01-12-1983,4.484375,4.484375,309600,4.546875,4.5,1.577955722808838
02-12-1983,4.46875,4.46875,124800,4.5625,4.546875,1.5943933725357056
05-12-1983,4.4375,4.515625,754400,4.515625,4.5,1.577955722808838
06-12-1983,4.46875,4.515625,184000,4.515625,4.46875,1.56699800491333
07-12-1983,4.4375,4.4375,735200,4.5,4.4375,1.5560401678085327
08-12-1983,4.40625,4.46875,628800,4.46875,4.4375,1.5560401678085327
09-12-1983,4.40625,4.40625,500000,4.453125,4.4375,1.5560401678085327
12-12-1983,4.390625,4.390625,120000,4.4375,4.390625,1.5396028757095337
13-12-1983,4.375,4.40625,100000,4.453125,4.40625,1.5450814962387085
14-12-1983,4.34375,4.375,1194400,4.40625,4.34375,1.523165225982666
15-12-1983,4.25,4.25,192800,4.3125,4.265625,1.4957700967788696
16-12-1983,4.1875,4.265625,640800,4.28125,4.234375,1.4848122596740723
19-12-1983,4.203125,4.203125,1264000,4.375,4.296875,1.5067286491394043
20-12-1983,4.28125,4.28125,405600,4.375,4.296875,1.5067286491394043
21-12-1983,4.21875,4.296875,792800,4.3125,4.3125,1.51220703125
22-12-1983,4.25,4.3125,403200,4.34375,4.25,1.4902923107147217
23-12-1983,4.203125,4.203125,127200,4.25,4.21875,1.479333519935608
27-12-1983,4.234375,4.234375,384800,4.328125,4.328125,1.5176866054534912
28-12-1983,4.25,4.3125,1399200,4.328125,4.296875,1.5067286491394043
29-12-1983,4.296875,4.3125,188800,4.4375,4.4375,1.5560401678085327
30-12-1983,4.34375,4.46875,563200,4.46875,4.359375,1.52864408493042
03-01-1984,4.328125,4.328125,460000,4.453125,4.34375,1.523165225982666
04-01-1984,4.3125,4.328125,1320800,4.375,4.34375,1.523165225982666
05-01-1984,4.34375,4.375,1296000,4.609375,4.5625,1.599871039390564
06-01-1984,4.53125,4.59375,693600,4.625,4.59375,1.6108299493789673
09-01-1984,4.578125,4.59375,900800,4.75,4.671875,1.6382249593734741
10-01-1984,4.578125,4.703125,532000,4.71875,4.578125,1.6053507328033447
11-01-1984,4.5,4.5625,502400,4.609375,4.578125,1.6053507328033447
12-01-1984,4.46875,4.53125,204000,4.5625,4.5,1.577955722808838
13-01-1984,4.3125,4.4375,294400,4.4375,4.375,1.5341236591339111
16-01-1984,4.3125,4.34375,391200,4.421875,4.421875,1.550560474395752
17-01-1984,4.375,4.421875,351200,4.4375,4.421875,1.550560474395752
18-01-1984,4.34375,4.421875,552800,4.4375,4.375,1.5341236591339111
19-01-1984,4.40625,4.40625,529600,4.46875,4.4375,1.5560401678085327
20-01-1984,4.453125,4.484375,268000,4.484375,4.453125,1.5615183115005493
23-01-1984,4.296875,4.4375,2306400,4.4375,4.296875,1.5067286491394043
24-01-1984,4.21875,4.296875,504800,4.328125,4.21875,1.479333519935608
25-01-1984,4.1875,4.25,560800,4.296875,4.21875,1.479333519935608
26-01-1984,4.0625,4.15625,846400,4.1875,4.15625,1.4574174880981445
27-01-1984,4.09375,4.125,588800,4.1875,4.125,1.4464596509933472
30-01-1984,3.96875,4.078125,643200,4.078125,4.0,1.4026274681091309
31-01-1984,3.96875,4.0,533600,4.09375,4.0,1.4026274681091309
01-02-1984,3.8125,4.0,642400,4.0625,3.96875,1.3916701078414917
02-02-1984,3.859375,3.921875,502400,3.953125,3.875,1.358794927597046
03-02-1984,3.90625,3.90625,748800,4.0,3.9375,1.3807111978530884
06-02-1984,3.859375,3.890625,1136800,3.96875,3.9375,1.3807111978530884
07-02-1984,3.875,3.921875,891200,3.953125,3.953125,1.3861900568008423
08-02-1984,3.921875,4.03125,405600,4.0625,3.9375,1.3807111978530884
09-02-1984,3.8125,3.921875,765600,3.96875,3.84375,1.347836971282959
10-02-1984,3.71875,3.84375,756000,3.875,3.78125,1.3259209394454956
13-02-1984,3.71875,3.796875,352000,3.796875,3.765625,1.320441484451294
14-02-1984,3.625,3.78125,989600,3.78125,3.75,1.329081416130066
15-02-1984,3.59375,3.75,422400,3.75,3.625,1.284778356552124
16-02-1984,3.546875,3.671875,396800,3.6875,3.625,1.284778356552124
17-02-1984,3.421875,3.625,993600,3.640625,3.46875,1.2293999195098877
21-02-1984,3.4375,3.484375,616000,3.5,3.484375,1.2349377870559692
22-02-1984,3.4375,3.484375,3064800,3.609375,3.578125,1.2681655883789062
23-02-1984,3.4375,3.578125,684000,3.578125,3.546875,1.257088303565979
24-02-1984,3.53125,3.5625,696000,3.625,3.59375,1.2737022638320923
27-02-1984,3.640625,3.671875,732800,3.8125,3.78125,1.3401564359664917
28-02-1984,3.625,3.78125,644800,3.78125,3.65625,1.2958539724349976
29-02-1984,3.65625,3.65625,277600,3.796875,3.734375,1.323543667793274
01-03-1984,3.6875,3.75,355200,3.8125,3.78125,1.3401564359664917
02-03-1984,3.6875,3.75,1381600,3.8125,3.78125,1.3401564359664917
05-03-1984,3.71875,3.8125,566400,3.90625,3.71875,1.3180055618286133
06-03-1984,3.71875,3.75,408800,3.8125,3.765625,1.3346188068389893
07-03-1984,3.6875,3.71875,195200,3.8125,3.75,1.329081416130066
08-03-1984,3.65625,3.734375,291200,3.765625,3.71875,1.3180055618286133
09-03-1984,3.65625,3.75,484000,3.75,3.65625,1.2958539724349976
12-03-1984,3.671875,3.671875,291200,3.796875,3.75,1.329081416130066
13-03-1984,3.78125,3.78125,470400,3.875,3.8125,1.3512321710586548
14-03-1984,3.78125,3.8125,1076000,3.859375,3.8125,1.3512321710586548
15-03-1984,3.78125,3.8125,289600,3.859375,3.8125,1.3512321710586548
16-03-1984,3.890625,3.90625,772000,3.9375,3.921875,1.3899976015090942
19-03-1984,3.8125,3.890625,313600,3.890625,3.859375,1.367846131324768
20-03-1984,3.796875,3.828125,220800,3.859375,3.859375,1.367846131324768
21-03-1984,3.828125,3.828125,252800,3.9375,3.875,1.3733841180801392
22-03-1984,3.78125,3.90625,209600,3.90625,3.828125,1.3567708730697632
23-03-1984,3.75,3.8125,304800,3.84375,3.78125,1.3401564359664917
26-03-1984,3.75,3.78125,122400,3.8125,3.796875,1.3456947803497314
27-03-1984,3.75,3.765625,103200,3.8125,3.796875,1.3456947803497314
28-03-1984,3.78125,3.796875,248800,3.828125,3.8125,1.3512321710586548
29-03-1984,3.765625,3.828125,260800,3.828125,3.796875,1.3456947803497314
30-03-1984,3.71875,3.796875,354400,3.8125,3.796875,1.3456947803497314
02-04-1984,3.640625,3.765625,433600,3.796875,3.640625,1.290315866470337
03-04-1984,3.625,3.640625,559200,3.71875,3.6875,1.3069299459457397
04-04-1984,3.65625,3.65625,249600,3.71875,3.703125,1.3124679327011108
05-04-1984,3.65625,3.703125,140800,3.71875,3.703125,1.3124679327011108
06-04-1984,3.640625,3.671875,188000,3.6875,3.65625,1.2958539724349976
09-04-1984,3.5,3.6875,860800,3.71875,3.515625,1.2460132837295532
10-04-1984,3.453125,3.5,480800,3.53125,3.453125,1.223863124847412
11-04-1984,3.390625,3.4375,2084800,3.453125,3.4375,1.2183243036270142
12-04-1984,3.484375,3.484375,885600,3.578125,3.546875,1.257088303565979
13-04-1984,3.4375,3.578125,2246400,3.59375,3.484375,1.2349377870559692
16-04-1984,3.421875,3.5,888800,3.5,3.46875,1.2293999195098877
17-04-1984,3.484375,3.5,1244800,3.546875,3.5,1.2404754161834717
18-04-1984,3.5,3.515625,1323200,3.53125,3.515625,1.2460132837295532
19-04-1984,3.5,3.53125,290400,3.578125,3.5625,1.2626270055770874
23-04-1984,3.546875,3.59375,242400,3.609375,3.5625,1.2626270055770874
24-04-1984,3.484375,3.53125,612800,3.609375,3.5,1.2404754161834717
25-04-1984,3.515625,3.53125,840800,3.59375,3.5625,1.2626270055770874
26-04-1984,3.59375,3.59375,1172800,3.75,3.703125,1.3124679327011108
27-04-1984,3.703125,3.734375,596800,3.8125,3.75,1.329081416130066
30-04-1984,3.703125,3.75,315200,3.796875,3.78125,1.3401564359664917
01-05-1984,3.78125,3.796875,473600,3.84375,3.84375,1.3623089790344238
02-05-1984,3.78125,3.859375,392800,3.875,3.859375,1.367846131324768
03-05-1984,3.78125,3.890625,353600,3.890625,3.828125,1.3567708730697632
04-05-1984,3.59375,3.78125,682400,3.796875,3.65625,1.311267375946045
07-05-1984,3.65625,3.71875,988000,3.75,3.75,1.344890832901001
08-05-1984,3.71875,3.75,811200,3.828125,3.8125,1.3673057556152344
09-05-1984,3.765625,3.8125,752000,3.875,3.78125,1.3560975790023804
10-05-1984,3.734375,3.78125,208800,3.78125,3.78125,1.3560975790023804
11-05-1984,3.5625,3.78125,575200,3.78125,3.703125,1.3280795812606812
14-05-1984,3.578125,3.71875,273600,3.71875,3.625,1.300060749053955
15-05-1984,3.5625,3.625,702400,3.640625,3.578125,1.2832505702972412
16-05-1984,3.453125,3.5625,1334400,3.5625,3.5625,1.2776457071304321
17-05-1984,3.46875,3.53125,1342400,3.5625,3.46875,1.244023323059082
18-05-1984,3.40625,3.453125,908800,3.5,3.421875,1.2272123098373413
21-05-1984,3.390625,3.40625,536800,3.46875,3.421875,1.2272123098373413
22-05-1984,3.28125,3.421875,1011200,3.421875,3.34375,1.1991944313049316
23-05-1984,3.34375,3.359375,583200,3.421875,3.390625,1.2160053253173828
24-05-1984,3.296875,3.375,1495200,3.40625,3.34375,1.1991944313049316
25-05-1984,3.28125,3.375,728000,3.40625,3.3125,1.1879867315292358
29-05-1984,3.1875,3.34375,768000,3.359375,3.25,1.165571928024292
30-05-1984,3.125,3.28125,3813600,3.28125,3.15625,1.1319488286972046
31-05-1984,3.09375,3.109375,1299200,3.171875,3.125,1.1207420825958252
01-06-1984,3.171875,3.1875,1281600,3.234375,3.203125,1.1487609148025513
04-06-1984,3.21875,3.21875,2139200,3.46875,3.375,1.210400938987732
05-06-1984,3.28125,3.40625,825600,3.40625,3.34375,1.1991944313049316
06-06-1984,3.40625,3.40625,440000,3.46875,3.46875,1.244023323059082
07-06-1984,3.46875,3.46875,6442400,3.515625,3.515625,1.2608346939086914
08-06-1984,3.484375,3.53125,396800,3.546875,3.53125,1.2664384841918945
11-06-1984,3.515625,3.5625,323200,3.5625,3.53125,1.2664384841918945
12-06-1984,3.453125,3.484375,284000,3.5,3.5,1.2552307844161987
13-06-1984,3.484375,3.5,260800,3.53125,3.515625,1.2608346939086914
14-06-1984,3.421875,3.5,861600,3.515625,3.453125,1.2384203672409058
15-06-1984,3.375,3.453125,334400,3.484375,3.40625,1.2216087579727173
18-06-1984,3.375,3.375,472000,3.484375,3.46875,1.244023323059082
19-06-1984,3.4375,3.5,385600,3.5,3.484375,1.2496269941329956
20-06-1984,3.375,3.453125,2826400,3.46875,3.46875,1.244023323059082
21-06-1984,3.421875,3.46875,983200,3.46875,3.453125,1.2384203672409058
22-06-1984,3.390625,3.453125,839200,3.453125,3.453125,1.2384203672409058
25-06-1984,3.453125,3.484375,1771200,3.515625,3.46875,1.244023323059082
26-06-1984,3.46875,3.5,2021600,3.546875,3.46875,1.244023323059082
27-06-1984,3.375,3.4375,542400,3.46875,3.4375,1.2328166961669922
28-06-1984,3.390625,3.4375,572000,3.4375,3.4375,1.2328166961669922
29-06-1984,3.4375,3.4375,1027200,3.484375,3.484375,1.2496269941329956
02-07-1984,3.453125,3.53125,511200,3.53125,3.484375,1.2496269941329956
03-07-1984,3.46875,3.5,676000,3.59375,3.5625,1.2776457071304321
05-07-1984,3.5,3.5625,293600,3.578125,3.546875,1.2720422744750977
06-07-1984,3.484375,3.53125,331200,3.65625,3.546875,1.2720422744750977
09-07-1984,3.578125,3.59375,264000,3.625,3.625,1.300060749053955
10-07-1984,3.65625,3.65625,552800,3.78125,3.71875,1.3336830139160156
11-07-1984,3.65625,3.71875,184000,3.75,3.6875,1.322474718093872
12-07-1984,3.5625,3.625,382400,3.6875,3.625,1.300060749053955
13-07-1984,3.546875,3.65625,687200,3.6875,3.609375,1.2944575548171997
16-07-1984,3.546875,3.609375,436000,3.65625,3.625,1.300060749053955
17-07-1984,3.609375,3.625,928800,3.6875,3.65625,1.311267375946045
18-07-1984,3.53125,3.65625,272800,3.65625,3.625,1.300060749053955
19-07-1984,3.46875,3.625,314400,3.625,3.5,1.2552307844161987
20-07-1984,3.53125,3.53125,136000,3.625,3.59375,1.2888530492782593
23-07-1984,3.53125,3.59375,532000,3.59375,3.546875,1.2720422744750977
24-07-1984,3.53125,3.546875,476800,3.59375,3.546875,1.2720422744750977
25-07-1984,3.515625,3.546875,224800,3.578125,3.546875,1.2720422744750977
26-07-1984,3.5,3.578125,936800,3.578125,3.53125,1.2664384841918945
27-07-1984,3.46875,3.5,457600,3.625,3.53125,1.2664384841918945
30-07-1984,3.46875,3.546875,628000,3.609375,3.5,1.2552307844161987
31-07-1984,3.40625,3.484375,531200,3.53125,3.453125,1.2384203672409058
01-08-1984,3.484375,3.484375,1785600,3.734375,3.625,1.300060749053955
02-08-1984,3.625,3.625,1441600,3.75,3.75,1.344890832901001
03-08-1984,3.828125,3.875,1789600,3.9375,3.875,1.3897204399108887
06-08-1984,3.8125,3.859375,2960800,3.9375,3.9375,1.428727149963379
07-08-1984,3.890625,3.90625,716000,4.046875,3.984375,1.445734977722168
08-08-1984,3.9375,3.984375,592000,4.0,3.9375,1.428727149963379
09-08-1984,3.875,3.9375,1179200,4.125,4.109375,1.4910914897918701
10-08-1984,4.09375,4.09375,1677600,4.234375,4.1875,1.5194398164749146
13-08-1984,4.0625,4.15625,1063200,4.1875,4.078125,1.479753017425537
14-08-1984,4.09375,4.15625,637600,4.15625,4.09375,1.4854223728179932
15-08-1984,3.96875,4.03125,536000,4.109375,4.078125,1.479753017425537
16-08-1984,4.046875,4.046875,495200,4.15625,4.09375,1.4854223728179932
17-08-1984,4.09375,4.125,474400,4.15625,4.109375,1.4910914897918701
20-08-1984,4.09375,4.09375,893600,4.1875,4.1875,1.5194398164749146
21-08-1984,4.15625,4.21875,700000,4.28125,4.234375,1.5364476442337036
22-08-1984,4.125,4.234375,1062400,4.234375,4.21875,1.5307782888412476
23-08-1984,4.171875,4.1875,199200,4.21875,4.1875,1.5194398164749146
24-08-1984,4.1875,4.1875,376800,4.3125,4.296875,1.5591261386871338
27-08-1984,4.21875,4.3125,188800,4.3125,4.28125,1.5534567832946777
28-08-1984,4.21875,4.25,974400,4.296875,4.234375,1.5364476442337036
29-08-1984,4.171875,4.25,725600,4.28125,4.1875,1.5194398164749146
30-08-1984,4.140625,4.15625,276000,4.203125,4.15625,1.5080997943878174
31-08-1984,4.09375,4.125,365600,4.1875,4.1875,1.5194398164749146
04-09-1984,4.140625,4.15625,382400,4.171875,4.171875,1.5137691497802734
05-09-1984,4.078125,4.140625,368000,4.171875,4.140625,1.5024300813674927
06-09-1984,4.171875,4.171875,220000,4.203125,4.1875,1.5194398164749146
07-09-1984,4.15625,4.234375,332000,4.25,4.1875,1.5194398164749146
10-09-1984,4.140625,4.15625,212800,4.21875,4.1875,1.5194398164749146
11-09-1984,4.21875,4.21875,533600,4.28125,4.25,1.5421168804168701
12-09-1984,4.1875,4.21875,748800,4.25,4.21875,1.5307782888412476
13-09-1984,4.1875,4.1875,1043200,4.34375,4.34375,1.5761351585388184
14-09-1984,4.296875,4.359375,648800,4.375,4.34375,1.5761351585388184
17-09-1984,4.3125,4.3125,676800,4.40625,4.40625,1.5988140106201172
18-09-1984,4.40625,4.421875,744800,4.484375,4.484375,1.6271610260009766
19-09-1984,4.421875,4.453125,767200,4.515625,4.4375,1.6101528406143188
20-09-1984,4.40625,4.40625,536800,4.484375,4.46875,1.6214910745620728
21-09-1984,4.4375,4.4375,721600,4.484375,4.4375,1.6101528406143188
24-09-1984,4.40625,4.421875,444000,4.484375,4.46875,1.6214910745620728
25-09-1984,4.375,4.453125,1692000,4.453125,4.421875,1.6044820547103882
26-09-1984,4.359375,4.40625,603200,4.46875,4.359375,1.5818047523498535
27-09-1984,4.28125,4.390625,757600,4.40625,4.375,1.5874735116958618
28-09-1984,4.15625,4.265625,817600,4.265625,4.21875,1.5307782888412476
01-10-1984,4.171875,4.1875,296800,4.25,4.21875,1.5307782888412476
02-10-1984,4.171875,4.203125,294400,4.28125,4.171875,1.5137691497802734
03-10-1984,4.0,4.140625,1790400,4.1875,4.03125,1.462743878364563
04-10-1984,4.03125,4.03125,644000,4.09375,4.09375,1.4854223728179932
05-10-1984,4.125,4.125,310400,4.21875,4.171875,1.5137691497802734
08-10-1984,4.078125,4.15625,121600,4.171875,4.109375,1.4910914897918701
09-10-1984,4.09375,4.109375,1056000,4.15625,4.140625,1.5024300813674927
10-10-1984,4.03125,4.140625,262400,4.15625,4.15625,1.5080997943878174
11-10-1984,4.140625,4.140625,126400,4.21875,4.21875,1.5307782888412476
12-10-1984,4.1875,4.1875,442400,4.328125,4.296875,1.5591261386871338
15-10-1984,4.28125,4.3125,1718400,4.390625,4.34375,1.5761351585388184
16-10-1984,4.1875,4.328125,244000,4.34375,4.21875,1.5307782888412476
17-10-1984,4.1875,4.21875,328800,4.28125,4.25,1.5421168804168701
18-10-1984,4.21875,4.21875,368000,4.34375,4.34375,1.5761351585388184
19-10-1984,4.34375,4.34375,1361600,4.5625,4.421875,1.6044820547103882
22-10-1984,4.375,4.421875,663200,4.421875,4.375,1.5874735116958618
23-10-1984,4.3125,4.34375,997600,4.375,4.34375,1.5761351585388184
24-10-1984,4.328125,4.328125,234400,4.4375,4.390625,1.5931434631347656
25-10-1984,4.328125,4.375,1270400,4.390625,4.34375,1.5761351585388184
26-10-1984,4.234375,4.3125,825600,4.34375,4.28125,1.5534567832946777
29-10-1984,4.25,4.265625,343200,4.28125,4.25,1.5421168804168701
30-10-1984,4.21875,4.25,420000,4.359375,4.328125,1.5704659223556519
31-10-1984,4.28125,4.28125,791200,4.3125,4.296875,1.5591261386871338
01-11-1984,4.09375,4.125,859200,4.15625,4.125,1.4967612028121948
02-11-1984,4.0625,4.078125,1601600,4.171875,4.140625,1.5190012454986572
05-11-1984,4.109375,4.125,407200,4.203125,4.203125,1.5419301986694336
06-11-1984,4.21875,4.21875,916000,4.296875,4.296875,1.5763226747512817
07-11-1984,4.234375,4.28125,539200,4.296875,4.28125,1.570590853691101
08-11-1984,4.25,4.28125,999200,4.296875,4.28125,1.570590853691101
09-11-1984,4.234375,4.296875,480000,4.3125,4.28125,1.570590853691101
12-11-1984,4.265625,4.265625,361600,4.3125,4.296875,1.5763226747512817
13-11-1984,4.234375,4.265625,615200,4.296875,4.28125,1.570590853691101
14-11-1984,4.25,4.265625,357600,4.328125,4.3125,1.5820543766021729
15-11-1984,4.28125,4.3125,764000,4.3125,4.3125,1.5820543766021729
16-11-1984,4.28125,4.3125,492000,4.359375,4.328125,1.5877866744995117
19-11-1984,4.28125,4.296875,768000,4.375,4.3125,1.5820543766021729
20-11-1984,4.21875,4.265625,313600,4.296875,4.25,1.5591251850128174
21-11-1984,4.21875,4.28125,612800,4.28125,4.25,1.5591251850128174
23-11-1984,4.21875,4.234375,168000,4.28125,4.25,1.5591251850128174
26-11-1984,4.203125,4.25,520800,4.25,4.234375,1.5533937215805054
27-11-1984,4.171875,4.203125,790400,4.234375,4.203125,1.5419301986694336
28-11-1984,4.125,4.1875,481600,4.1875,4.140625,1.5190012454986572
29-11-1984,4.03125,4.109375,733600,4.125,4.078125,1.496073603630066
30-11-1984,4.078125,4.125,350400,4.1875,4.109375,1.5075384378433228
03-12-1984,4.0625,4.078125,244800,4.125,4.078125,1.496073603630066
04-12-1984,4.078125,4.078125,598400,4.1875,4.15625,1.5247334241867065
05-12-1984,4.0625,4.125,287200,4.125,4.09375,1.501805067062378
06-12-1984,4.078125,4.09375,384800,4.171875,4.140625,1.5190012454986572
07-12-1984,4.09375,4.09375,342400,4.140625,4.125,1.513269305229187
10-12-1984,4.125,4.125,331200,4.171875,4.140625,1.5190012454986572
11-12-1984,4.125,4.125,416000,4.1875,4.140625,1.5190012454986572
12-12-1984,4.125,4.125,872800,4.15625,4.140625,1.5190012454986572
13-12-1984,4.09375,4.125,420000,4.15625,4.109375,1.5075384378433228
14-12-1984,4.0625,4.078125,412000,4.125,4.09375,1.501805067062378
17-12-1984,4.0,4.125,1825600,4.125,4.0625,1.4903416633605957
18-12-1984,4.09375,4.09375,884000,4.171875,4.171875,1.5304654836654663
19-12-1984,4.15625,4.15625,755200,4.21875,4.15625,1.5247334241867065
20-12-1984,4.125,4.203125,779200,4.21875,4.125,1.513269305229187
21-12-1984,3.9375,4.09375,1142400,4.15625,4.046875,1.4846092462539673
24-12-1984,4.046875,4.078125,260800,4.125,4.109375,1.5075384378433228
26-12-1984,4.03125,4.109375,103200,4.109375,4.046875,1.4846092462539673
27-12-1984,4.046875,4.078125,1440800,4.09375,4.0625,1.4903416633605957
28-12-1984,4.0,4.03125,319200,4.0625,4.046875,1.4846092462539673
31-12-1984,4.046875,4.078125,479200,4.171875,4.109375,1.5075384378433228
02-01-1985,4.109375,4.109375,910400,4.203125,4.15625,1.5247334241867065
03-01-1985,4.125,4.15625,364800,4.171875,4.15625,1.5247334241867065
04-01-1985,4.125,4.140625,332800,4.171875,4.125,1.513269305229187
07-01-1985,4.140625,4.171875,1047200,4.21875,4.171875,1.5304654836654663
08-01-1985,4.15625,4.171875,320800,4.203125,4.1875,1.5361984968185425
09-01-1985,4.1875,4.21875,337600,4.21875,4.21875,1.547661542892456
10-01-1985,4.203125,4.21875,1797600,4.296875,4.296875,1.5763226747512817
11-01-1985,4.234375,4.296875,1031200,4.3125,4.28125,1.570590853691101
14-01-1985,4.25,4.25,2920800,4.328125,4.328125,1.5877866744995117
15-01-1985,4.296875,4.328125,5229600,4.4375,4.40625,1.6164475679397583
16-01-1985,4.40625,4.5,13840000,4.5625,4.515625,1.6565712690353394
17-01-1985,4.484375,4.515625,1127200,4.515625,4.5,1.6508392095565796
18-01-1985,4.515625,4.53125,2415200,4.578125,4.546875,1.6680359840393066
21-01-1985,4.53125,4.53125,1831200,4.71875,4.71875,1.731088638305664
22-01-1985,4.71875,4.734375,2558400,4.859375,4.734375,1.7368216514587402
23-01-1985,4.71875,4.75,644800,4.796875,4.765625,1.7482843399047852
24-01-1985,4.71875,4.734375,940800,4.796875,4.734375,1.7368216514587402
25-01-1985,4.71875,4.71875,966400,4.921875,4.921875,1.805605411529541
28-01-1985,4.859375,4.875,801600,5.0,5.0,1.8342671394348145
29-01-1985,4.875,4.921875,579200,4.96875,4.96875,1.8228027820587158
30-01-1985,4.890625,4.984375,1524000,4.984375,4.96875,1.8228027820587158
31-01-1985,4.78125,4.875,620800,4.90625,4.84375,1.7769458293914795
01-02-1985,4.78125,4.8125,423200,4.84375,4.78125,1.7540171146392822
04-02-1985,4.765625,4.765625,1716000,4.828125,4.8125,1.7654807567596436
05-02-1985,4.75,4.8125,636800,4.828125,4.78125,1.7540171146392822
06-02-1985,4.65625,4.765625,1779200,4.8125,4.703125,1.7253570556640625
07-02-1985,4.6875,4.703125,568000,4.78125,4.78125,1.7540171146392822
08-02-1985,4.75,4.78125,959200,4.859375,4.859375,1.7826765775680542
11-02-1985,4.78125,4.8125,571200,4.8125,4.796875,1.7780436277389526
12-02-1985,4.71875,4.765625,586400,4.796875,4.734375,1.7548787593841553
13-02-1985,4.6875,4.71875,432000,4.75,4.734375,1.7548787593841553
14-02-1985,4.65625,4.734375,1396800,4.734375,4.6875,1.7375026941299438
15-02-1985,4.625,4.65625,1879200,4.65625,4.625,1.7143359184265137
19-02-1985,4.609375,4.6875,924800,4.6875,4.609375,1.708543062210083
20-02-1985,4.578125,4.609375,1586400,4.625,4.59375,1.7027522325515747
21-02-1985,4.546875,4.59375,1268000,4.59375,4.578125,1.6969608068466187
22-02-1985,4.546875,4.5625,1045600,4.609375,4.59375,1.7027522325515747
25-02-1985,4.609375,4.609375,356800,4.609375,4.609375,1.708543062210083
26-02-1985,4.59375,4.609375,665600,4.65625,4.640625,1.7201274633407593
27-02-1985,4.625,4.625,451200,4.6875,4.65625,1.7259190082550049
28-02-1985,4.671875,4.6875,763200,4.71875,4.71875,1.7490853071212769
01-03-1985,4.71875,4.75,774400,4.859375,4.828125,1.789627194404602
04-03-1985,4.734375,4.796875,907200,4.8125,4.765625,1.766460657119751
05-03-1985,4.71875,4.796875,940000,4.84375,4.75,1.7606688737869263
06-03-1985,4.75,4.75,1347200,4.859375,4.8125,1.7838363647460938
07-03-1985,4.765625,4.78125,678400,4.890625,4.828125,1.789627194404602
08-03-1985,4.8125,4.8125,493600,4.90625,4.90625,1.818585991859436
11-03-1985,4.859375,4.875,1016000,4.953125,4.875,1.8070021867752075
12-03-1985,4.6875,4.84375,862400,4.875,4.75,1.7606688737869263
13-03-1985,4.6875,4.71875,280800,4.796875,4.703125,1.743294596672058
14-03-1985,4.65625,4.6875,569600,4.8125,4.796875,1.7780436277389526
15-03-1985,4.625,4.765625,582400,4.8125,4.625,1.7143359184265137
18-03-1985,4.625,4.625,464000,4.703125,4.671875,1.7317113876342773
19-03-1985,4.640625,4.640625,392800,4.796875,4.75,1.7606688737869263
20-03-1985,4.65625,4.71875,212800,4.71875,4.6875,1.7375026941299438
21-03-1985,4.625,4.65625,334400,4.703125,4.671875,1.7317113876342773
22-03-1985,4.65625,4.6875,413600,4.734375,4.703125,1.743294596672058
25-03-1985,4.65625,4.703125,211200,4.734375,4.703125,1.743294596672058
26-03-1985,4.6875,4.71875,472000,4.78125,4.71875,1.7490853071212769
27-03-1985,4.703125,4.734375,250400,4.75,4.734375,1.7548787593841553
28-03-1985,4.640625,4.734375,610400,4.734375,4.671875,1.7317113876342773
29-03-1985,4.625,4.703125,410400,4.703125,4.65625,1.7259190082550049
01-04-1985,4.65625,4.671875,460800,4.703125,4.6875,1.7375026941299438
02-04-1985,4.671875,4.703125,448000,4.71875,4.703125,1.743294596672058
03-04-1985,4.671875,4.671875,388000,4.75,4.75,1.7606688737869263
04-04-1985,4.703125,4.703125,434400,4.75,4.734375,1.7548787593841553
08-04-1985,4.703125,4.734375,388000,4.734375,4.734375,1.7548787593841553
09-04-1985,4.6875,4.6875,454400,4.71875,4.71875,1.7490853071212769
10-04-1985,4.65625,4.78125,894400,4.78125,4.6875,1.7375026941299438
11-04-1985,4.671875,4.703125,643200,4.71875,4.6875,1.7375026941299438
12-04-1985,4.625,4.65625,1068800,4.6875,4.65625,1.7259190082550049
15-04-1985,4.625,4.625,189600,4.6875,4.6875,1.7375026941299438
16-04-1985,4.578125,4.640625,768800,4.671875,4.625,1.7143359184265137
17-04-1985,4.421875,4.5625,2160800,4.578125,4.484375,1.6622107028961182
18-04-1985,4.390625,4.40625,640800,4.4375,4.421875,1.6390444040298462
19-04-1985,4.390625,4.4375,615200,4.453125,4.4375,1.6448359489440918
22-04-1985,4.34375,4.40625,780000,4.40625,4.40625,1.6332521438598633
23-04-1985,4.34375,4.34375,564000,4.453125,4.453125,1.6506274938583374
24-04-1985,4.375,4.390625,4750400,4.453125,4.390625,1.6274604797363281
25-04-1985,4.34375,4.4375,649600,4.4375,4.4375,1.6448359489440918
26-04-1985,4.390625,4.40625,842400,4.4375,4.421875,1.6390444040298462
29-04-1985,4.375,4.421875,504000,4.421875,4.390625,1.6274604797363281
30-04-1985,4.34375,4.359375,612800,4.375,4.359375,1.6158770322799683
01-05-1985,4.34375,4.359375,2526400,4.40625,4.34375,1.610085368156433
02-05-1985,4.3125,4.328125,977600,4.359375,4.359375,1.6158770322799683
03-05-1985,4.34375,4.359375,497600,4.40625,4.390625,1.6274604797363281
06-05-1985,4.3125,4.359375,297600,4.375,4.3125,1.6169153451919556
07-05-1985,4.3125,4.34375,423200,4.375,4.375,1.6403485536575317
08-05-1985,4.328125,4.375,1213600,4.375,4.34375,1.6286323070526123
09-05-1985,4.359375,4.359375,549600,4.40625,4.40625,1.6520661115646362
10-05-1985,4.40625,4.421875,1000000,4.53125,4.515625,1.6930745840072632
13-05-1985,4.46875,4.546875,528000,4.546875,4.5,1.6872155666351318
14-05-1985,4.53125,4.53125,852000,4.625,4.59375,1.722366452217102
15-05-1985,4.59375,4.609375,1112000,4.6875,4.640625,1.7399418354034424
16-05-1985,4.65625,4.671875,509600,4.75,4.75,1.780949592590332
17-05-1985,4.78125,4.78125,1585600,4.859375,4.84375,1.816100001335144
20-05-1985,4.875,4.890625,1227200,4.96875,4.9375,1.8512508869171143
21-05-1985,4.90625,4.9375,665600,4.96875,4.953125,1.8571102619171143
22-05-1985,4.921875,4.9375,1565600,4.96875,4.9375,1.8512508869171143
23-05-1985,4.875,4.921875,925600,4.953125,4.953125,1.8571102619171143
24-05-1985,4.890625,4.96875,918400,4.984375,4.921875,1.8453927040100098
28-05-1985,4.828125,4.90625,714400,4.921875,4.859375,1.8219578266143799
29-05-1985,4.828125,4.84375,803200,4.90625,4.875,1.8278172016143799
30-05-1985,4.84375,4.890625,470400,4.90625,4.875,1.8278172016143799
31-05-1985,4.84375,4.875,618400,4.90625,4.890625,1.8336751461029053
03-06-1985,4.796875,4.859375,446400,4.890625,4.8125,1.8043842315673828
04-06-1985,4.78125,4.78125,4740800,4.96875,4.921875,1.8453927040100098
05-06-1985,4.9375,4.953125,2116000,5.109375,5.09375,1.9098345041275024
06-06-1985,5.03125,5.09375,1146400,5.109375,5.109375,1.9156928062438965
07-06-1985,5.09375,5.09375,784000,5.1875,5.15625,1.9332691431045532
10-06-1985,5.125,5.15625,580800,5.15625,5.125,1.9215511083602905
11-06-1985,5.09375,5.140625,719200,5.140625,5.109375,1.9156928062438965
12-06-1985,5.078125,5.109375,701600,5.125,5.09375,1.9098345041275024
13-06-1985,5.078125,5.125,1678400,5.15625,5.09375,1.9098345041275024
14-06-1985,5.125,5.140625,594400,5.234375,5.21875,1.9567021131515503
17-06-1985,5.1875,5.203125,363200,5.25,5.25,1.968417763710022
18-06-1985,5.171875,5.21875,696800,5.28125,5.1875,1.944983720779419
19-06-1985,5.15625,5.203125,1571200,5.28125,5.25,1.968417763710022
20-06-1985,5.21875,5.21875,241600,5.28125,5.28125,1.9801362752914429
21-06-1985,5.25,5.25,808000,5.296875,5.296875,1.9859929084777832
24-06-1985,5.21875,5.265625,1336800,5.28125,5.265625,1.9742772579193115
25-06-1985,5.1875,5.25,1568000,5.359375,5.203125,1.9508436918258667
26-06-1985,5.1875,5.21875,676000,5.28125,5.25,1.968417763710022
27-06-1985,5.21875,5.25,648000,5.296875,5.21875,1.9567021131515503
28-06-1985,5.203125,5.25,646400,5.265625,5.234375,1.9625601768493652
01-07-1985,5.203125,5.234375,485600,5.296875,5.28125,1.9801362752914429
02-07-1985,5.25,5.265625,669600,5.3125,5.3125,1.9918527603149414
03-07-1985,5.28125,5.3125,1062400,5.4375,5.40625,2.0270018577575684
05-07-1985,5.390625,5.40625,444000,5.421875,5.421875,2.0328614711761475
08-07-1985,5.390625,5.390625,688000,5.421875,5.421875,2.0328614711761475
09-07-1985,5.328125,5.421875,791200,5.421875,5.390625,2.021144390106201
10-07-1985,5.34375,5.375,2248800,5.40625,5.375,2.0152857303619385
11-07-1985,5.328125,5.328125,1067200,5.390625,5.390625,2.021144390106201
12-07-1985,5.390625,5.421875,568800,5.453125,5.453125,2.0445775985717773
15-07-1985,5.4375,5.46875,708800,5.5,5.453125,2.0445775985717773
16-07-1985,5.421875,5.453125,656800,5.53125,5.5,2.062152624130249
17-07-1985,5.59375,5.625,2698400,5.671875,5.671875,2.1265945434570312
18-07-1985,5.625,5.671875,1896000,5.796875,5.78125,2.1676034927368164
19-07-1985,5.734375,5.75,1309600,5.90625,5.875,2.2027528285980225
22-07-1985,5.71875,5.84375,429600,5.859375,5.765625,2.16174578666687
23-07-1985,5.59375,5.796875,941600,5.8125,5.625,2.109020233154297
24-07-1985,5.5,5.65625,410400,5.65625,5.53125,2.073868989944458
25-07-1985,5.5,5.53125,535200,5.5625,5.5625,2.0855860710144043
26-07-1985,5.546875,5.546875,1002400,5.734375,5.71875,2.1441709995269775
29-07-1985,5.59375,5.734375,928000,5.734375,5.640625,2.114877700805664
30-07-1985,5.59375,5.625,361600,5.65625,5.640625,2.114877700805664
31-07-1985,5.625,5.640625,216800,5.6875,5.671875,2.1265945434570312
01-08-1985,5.625,5.671875,372800,5.6875,5.65625,2.120736837387085
02-08-1985,5.640625,5.671875,945600,5.734375,5.6875,2.132455348968506
05-08-1985,5.640625,5.6875,348800,5.6875,5.65625,2.120736837387085
06-08-1985,5.46875,5.5,2713600,5.65625,5.5,2.0805439949035645
07-08-1985,5.40625,5.5,1204000,5.53125,5.5,2.0805439949035645
08-08-1985,5.5,5.53125,1320000,5.6875,5.6875,2.151472568511963
09-08-1985,5.609375,5.65625,725600,5.703125,5.640625,2.1337406635284424
12-08-1985,5.609375,5.609375,644000,5.65625,5.625,2.127829074859619
13-08-1985,5.625,5.640625,587200,5.6875,5.640625,2.1337406635284424
14-08-1985,5.625,5.625,302400,5.6875,5.65625,2.1396501064300537
15-08-1985,5.53125,5.671875,822400,5.671875,5.53125,2.0923657417297363
16-08-1985,5.375,5.5,678400,5.53125,5.421875,2.0509915351867676
19-08-1985,5.421875,5.421875,441600,5.484375,5.453125,2.0628108978271484
20-08-1985,5.453125,5.484375,385600,5.578125,5.546875,2.0982768535614014
21-08-1985,5.453125,5.53125,1249600,5.625,5.5625,2.104187250137329
22-08-1985,5.484375,5.59375,1018400,5.59375,5.5,2.0805439949035645
23-08-1985,5.4375,5.46875,458400,5.5625,5.484375,2.0746350288391113
26-08-1985,5.484375,5.484375,340800,5.546875,5.5,2.0805439949035645
27-08-1985,5.484375,5.484375,152800,5.5625,5.5625,2.104187250137329
28-08-1985,5.46875,5.5625,448800,5.578125,5.5,2.0805439949035645
29-08-1985,5.484375,5.5,355200,5.546875,5.53125,2.0923657417297363
30-08-1985,5.484375,5.53125,737600,5.546875,5.53125,2.0923657417297363
03-09-1985,5.515625,5.546875,384000,5.6875,5.6875,2.151472568511963
04-09-1985,5.625,5.6875,371200,5.734375,5.671875,2.145561456680298
05-09-1985,5.5625,5.6875,484000,5.6875,5.578125,2.1100966930389404
06-09-1985,5.484375,5.5625,406400,5.59375,5.546875,2.0982768535614014
09-09-1985,5.5,5.5625,142400,5.5625,5.5,2.0805439949035645
10-09-1985,5.46875,5.46875,272800,5.515625,5.5,2.0805439949035645
11-09-1985,5.375,5.5,1280000,5.5,5.390625,2.039170503616333
12-09-1985,5.34375,5.375,597600,5.4375,5.375,2.033259868621826
13-09-1985,5.375,5.375,556800,5.4375,5.421875,2.0509915351867676
16-09-1985,5.40625,5.453125,253600,5.53125,5.515625,2.0864546298980713
17-09-1985,5.515625,5.515625,879200,5.625,5.609375,2.121919870376587
18-09-1985,5.484375,5.578125,427200,5.640625,5.484375,2.0746350288391113
19-09-1985,5.453125,5.515625,568000,5.515625,5.484375,2.0746350288391113
20-09-1985,5.421875,5.453125,589600,5.53125,5.46875,2.068722724914551
23-09-1985,5.53125,5.53125,484000,5.59375,5.59375,2.1160080432891846
24-09-1985,5.578125,5.59375,599200,5.65625,5.609375,2.121919870376587
25-09-1985,5.546875,5.546875,301600,5.609375,5.609375,2.121919870376587
26-09-1985,5.53125,5.625,360000,5.625,5.59375,2.1160080432891846
30-09-1985,5.578125,5.59375,349600,5.625,5.625,2.127829074859619
01-10-1985,5.59375,5.609375,324000,5.703125,5.703125,2.1573824882507324
02-10-1985,5.59375,5.71875,1103200,5.796875,5.59375,2.1160080432891846
03-10-1985,5.578125,5.578125,260800,5.6875,5.609375,2.121919870376587
04-10-1985,5.546875,5.609375,794400,5.609375,5.578125,2.1100966930389404
07-10-1985,5.390625,5.5625,848800,5.5625,5.40625,2.0450804233551025
08-10-1985,5.40625,5.4375,253600,5.484375,5.453125,2.0628108978271484
09-10-1985,5.40625,5.421875,2060000,5.46875,5.4375,2.0569024085998535
10-10-1985,5.421875,5.421875,260000,5.453125,5.4375,2.0569024085998535
11-10-1985,5.40625,5.40625,1391200,5.46875,5.46875,2.068722724914551
14-10-1985,5.453125,5.46875,680000,5.53125,5.53125,2.0923657417297363
15-10-1985,5.53125,5.5625,476800,5.59375,5.59375,2.1160080432891846
16-10-1985,5.578125,5.578125,1112000,5.671875,5.671875,2.145561456680298
17-10-1985,5.640625,5.640625,757600,5.703125,5.6875,2.151472568511963
18-10-1985,5.5625,5.671875,757600,5.703125,5.578125,2.1100966930389404
21-10-1985,5.5625,5.59375,1012800,5.734375,5.65625,2.1396501064300537
22-10-1985,5.65625,5.671875,692000,5.71875,5.703125,2.1573824882507324
23-10-1985,5.59375,5.703125,376800,5.703125,5.671875,2.145561456680298
24-10-1985,5.59375,5.65625,386400,5.671875,5.625,2.127829074859619
25-10-1985,5.515625,5.59375,182400,5.609375,5.609375,2.121919870376587
28-10-1985,5.546875,5.609375,180000,5.625,5.609375,2.121919870376587
29-10-1985,5.609375,5.609375,212800,5.65625,5.65625,2.1396501064300537
30-10-1985,5.625,5.625,640000,5.671875,5.671875,2.145561456680298
31-10-1985,5.65625,5.65625,524000,5.6875,5.6875,2.151472568511963
01-11-1985,5.65625,5.65625,965600,5.890625,5.890625,2.2283098697662354
04-11-1985,5.859375,5.90625,1089600,6.0,5.90625,2.234220266342163
05-11-1985,5.8125,6.015625,884000,6.015625,6.015625,2.296985626220703
06-11-1985,6.015625,6.015625,1521600,6.15625,6.046875,2.3089184761047363
07-11-1985,6.03125,6.046875,840000,6.15625,6.15625,2.3506808280944824
08-11-1985,6.046875,6.125,337600,6.125,6.09375,2.326817035675049
11-11-1985,6.03125,6.09375,656800,6.15625,6.15625,2.3506808280944824
12-11-1985,6.125,6.125,1264800,6.25,6.234375,2.38051176071167
13-11-1985,6.140625,6.25,449600,6.25,6.140625,2.3447134494781494
14-11-1985,6.078125,6.125,614400,6.234375,6.171875,2.356646776199341
15-11-1985,6.15625,6.15625,1276800,6.3125,6.203125,2.3685786724090576
18-11-1985,6.140625,6.21875,1349600,6.296875,6.296875,2.4043772220611572
19-11-1985,6.34375,6.375,854400,6.421875,6.421875,2.4521067142486572
20-11-1985,6.34375,6.375,290400,6.40625,6.375,2.434208393096924
21-11-1985,6.34375,6.375,668800,6.40625,6.375,2.434208393096924
22-11-1985,6.203125,6.34375,374400,6.375,6.21875,2.374547243118286
25-11-1985,6.1875,6.3125,424800,6.3125,6.265625,2.3924448490142822
26-11-1985,6.0625,6.234375,1265600,6.25,6.15625,2.3506808280944824
27-11-1985,6.1875,6.1875,1169600,6.3125,6.28125,2.3984103202819824
29-11-1985,6.203125,6.25,924800,6.3125,6.234375,2.38051176071167
02-12-1985,6.125,6.203125,472800,6.21875,6.203125,2.3685786724090576
03-12-1985,6.171875,6.21875,650400,6.25,6.1875,2.3626136779785156
04-12-1985,6.03125,6.0625,2110400,6.1875,6.171875,2.356646776199341
05-12-1985,5.9375,6.15625,1506400,6.1875,5.9375,2.2671549320220947
06-12-1985,5.5625,5.90625,1225600,5.90625,5.859375,2.2373239994049072
09-12-1985,5.828125,5.828125,827200,6.078125,5.96875,2.279086112976074
10-12-1985,5.9375,5.9375,409600,6.03125,5.953125,2.273120880126953
11-12-1985,5.9375,5.9375,549600,6.0,5.984375,2.2850513458251953
12-12-1985,5.90625,5.984375,1932000,6.0625,5.984375,2.2850513458251953
13-12-1985,5.984375,5.984375,625600,6.234375,6.203125,2.3685786724090576
16-12-1985,6.140625,6.1875,1236000,6.359375,6.34375,2.4222753047943115
17-12-1985,6.1875,6.359375,1179200,6.359375,6.359375,2.4282424449920654
18-12-1985,6.28125,6.328125,987200,6.375,6.34375,2.4222753047943115
19-12-1985,6.28125,6.296875,683200,6.359375,6.296875,2.4043772220611572
20-12-1985,6.25,6.296875,795200,6.375,6.375,2.434208393096924
23-12-1985,6.28125,6.3125,602400,6.375,6.359375,2.4282424449920654
24-12-1985,6.09375,6.3125,727200,6.3125,6.140625,2.3447134494781494
26-12-1985,6.09375,6.125,173600,6.140625,6.109375,2.3327834606170654
27-12-1985,6.078125,6.078125,525600,6.1875,6.1875,2.3626136779785156
30-12-1985,6.15625,6.1875,418400,6.265625,6.265625,2.3924448490142822
31-12-1985,6.25,6.28125,786400,6.375,6.375,2.434208393096924
02-01-1986,6.296875,6.375,540800,6.375,6.328125,2.416309118270874
03-01-1986,6.25,6.3125,650400,6.34375,6.296875,2.4043772220611572
06-01-1986,6.140625,6.296875,427200,6.296875,6.1875,2.3626136779785156
07-01-1986,6.03125,6.21875,592000,6.234375,6.125,2.338747024536133
08-01-1986,5.6875,6.15625,1376800,6.171875,5.71875,2.1836276054382324
09-01-1986,5.625,5.625,1164800,5.828125,5.828125,2.2253897190093994
10-01-1986,5.765625,5.8125,749600,5.84375,5.78125,2.2074923515319824
13-01-1986,5.765625,5.78125,688800,5.84375,5.78125,2.2074923515319824
14-01-1986,5.71875,5.78125,1518400,5.796875,5.765625,2.201526165008545
15-01-1986,5.71875,5.75,1378400,5.90625,5.90625,2.255220651626587
16-01-1986,5.875,5.921875,352000,6.03125,5.984375,2.2850513458251953
17-01-1986,5.9375,5.953125,518400,6.0625,6.015625,2.296985626220703
20-01-1986,5.890625,5.984375,744800,5.984375,5.96875,2.279086112976074
21-01-1986,5.875,5.953125,740000,6.0,5.921875,2.2611875534057617
22-01-1986,5.8125,5.96875,1319200,6.0,5.8125,2.2194252014160156
23-01-1986,5.765625,5.78125,598400,5.875,5.828125,2.2253897190093994
24-01-1986,5.8125,5.8125,909600,5.953125,5.953125,2.273120880126953
27-01-1986,5.890625,5.90625,435200,5.984375,5.96875,2.279086112976074
28-01-1986,5.9375,6.0,480800,6.0,5.953125,2.273120880126953
29-01-1986,5.953125,5.984375,848000,6.125,6.03125,2.302952289581299
30-01-1986,6.0,6.015625,881600,6.109375,6.0625,2.3148839473724365
31-01-1986,6.078125,6.109375,1335200,6.171875,6.140625,2.3447134494781494
03-02-1986,6.109375,6.109375,628000,6.21875,6.203125,2.3685786724090576
04-02-1986,6.21875,6.25,1524000,6.28125,6.234375,2.38051176071167
05-02-1986,6.234375,6.25,1951200,6.328125,6.3125,2.4103424549102783
06-02-1986,6.328125,6.34375,1742400,6.453125,6.421875,2.4521067142486572
07-02-1986,6.359375,6.421875,972000,6.53125,6.53125,2.493870735168457
10-02-1986,6.546875,6.703125,1145600,6.734375,6.703125,2.559497833251953
11-02-1986,6.640625,6.875,1729600,6.890625,6.875,2.646843671798706
12-02-1986,6.75,6.84375,1461600,6.90625,6.75,2.5987186431884766
13-02-1986,6.6875,6.71875,1157600,6.875,6.875,2.646843671798706
14-02-1986,6.734375,6.90625,1000000,6.96875,6.96875,2.6829357147216797
18-02-1986,6.96875,7.0,1034400,7.15625,7.125,2.743093729019165
19-02-1986,7.125,7.15625,1052000,7.34375,7.171875,2.7611396312713623
20-02-1986,7.125,7.171875,2320800,7.234375,7.15625,2.755121946334839
21-02-1986,7.140625,7.15625,1183200,7.3125,7.265625,2.7972328662872314
24-02-1986,7.15625,7.21875,668800,7.3125,7.296875,2.809262990951538
25-02-1986,7.15625,7.3125,1738400,7.34375,7.21875,2.779186725616455
26-02-1986,7.21875,7.25,732000,7.296875,7.28125,2.803248882293701
27-02-1986,7.25,7.3125,463200,7.375,7.328125,2.8212950229644775
28-02-1986,7.46875,7.5,1215200,7.6875,7.6875,2.9596521854400635
03-03-1986,7.421875,7.6875,721600,7.6875,7.453125,2.869420051574707
04-03-1986,7.34375,7.453125,1326400,7.6875,7.53125,2.899496555328369
05-03-1986,7.46875,7.5625,562400,7.5625,7.5625,2.9115288257598877
06-03-1986,7.5625,7.59375,1779200,8.046875,7.984375,3.0739495754241943
07-03-1986,7.84375,7.984375,1203200,7.984375,7.90625,3.043870210647583
10-03-1986,7.71875,7.90625,428000,7.96875,7.71875,2.971683979034424
11-03-1986,7.703125,7.703125,742400,7.921875,7.890625,3.037856101989746
12-03-1986,7.875,7.875,964800,8.15625,8.03125,3.091993570327759
13-03-1986,7.921875,8.0625,636000,8.125,8.09375,3.116057872772217
14-03-1986,7.53125,8.0625,1812800,8.125,8.0625,3.1040265560150146
17-03-1986,7.78125,7.96875,766400,8.0625,7.984375,3.0739495754241943
18-03-1986,7.8125,7.96875,484800,7.984375,7.953125,3.061917543411255
19-03-1986,7.8125,7.921875,692000,7.96875,7.90625,3.043870210647583
20-03-1986,7.875,7.90625,1108000,8.0625,8.0625,3.1040265560150146
21-03-1986,8.0625,8.125,1337600,8.21875,8.15625,3.140120029449463
24-03-1986,8.125,8.21875,1558400,8.265625,8.203125,3.158165693283081
25-03-1986,7.9375,8.1875,685600,8.1875,8.109375,3.1220715045928955
26-03-1986,8.015625,8.109375,904000,8.109375,8.046875,3.0980100631713867
27-03-1986,8.0,8.09375,678400,8.109375,8.015625,3.0859780311584473
31-03-1986,8.03125,8.078125,582400,8.109375,8.078125,3.1100401878356934
01-04-1986,8.015625,8.109375,619200,8.109375,8.015625,3.0859780311584473
02-04-1986,7.96875,8.03125,1211200,8.046875,8.046875,3.0980100631713867
03-04-1986,7.9375,8.046875,392800,8.078125,7.96875,3.0679328441619873
04-04-1986,7.59375,7.9375,819200,8.09375,7.59375,2.9235591888427734
07-04-1986,7.546875,7.59375,560800,7.65625,7.65625,2.9476213455200195
08-04-1986,7.640625,7.671875,503200,7.875,7.75,2.983715057373047
09-04-1986,7.609375,7.8125,917600,7.890625,7.625,2.935591220855713
10-04-1986,7.375,7.65625,1039200,7.65625,7.59375,2.9235591888427734
11-04-1986,7.546875,7.578125,458400,7.65625,7.625,2.935591220855713
14-04-1986,7.53125,7.65625,730400,7.671875,7.625,2.935591220855713
15-04-1986,7.625,7.65625,269600,7.734375,7.640625,2.941606283187866
16-04-1986,7.71875,7.71875,1074400,8.28125,8.25,3.1762120723724365
17-04-1986,7.9375,8.1875,801600,8.234375,8.0,3.079963207244873
18-04-1986,7.640625,8.03125,1028000,8.046875,8.03125,3.091993570327759
21-04-1986,8.0,8.09375,858400,8.109375,8.078125,3.1100401878356934
22-04-1986,8.125,8.21875,1219200,8.28125,8.25,3.1762120723724365
23-04-1986,8.1875,8.25,945600,8.28125,8.25,3.1762120723724365
24-04-1986,8.1875,8.1875,652800,8.265625,8.203125,3.158165693283081
25-04-1986,8.15625,8.203125,555200,8.234375,8.234375,3.170196056365967
28-04-1986,8.15625,8.234375,561600,8.265625,8.234375,3.170196056365967
29-04-1986,8.015625,8.203125,452000,8.203125,8.09375,3.116057872772217
30-04-1986,8.09375,8.171875,1053600,8.28125,8.125,3.1280877590179443
01-05-1986,8.03125,8.09375,796000,8.25,8.234375,3.170196056365967
02-05-1986,8.125,8.203125,712800,8.265625,8.203125,3.158165693283081
05-05-1986,8.125,8.171875,431200,8.25,8.21875,3.164182186126709
06-05-1986,8.09375,8.09375,180800,8.1875,8.09375,3.1389732360839844
07-05-1986,8.09375,8.140625,590400,8.25,8.234375,3.1935110092163086
08-05-1986,8.03125,8.28125,355200,8.28125,8.046875,3.120792865753174
09-05-1986,7.921875,8.015625,398400,8.015625,7.921875,3.0723166465759277
12-05-1986,7.796875,7.9375,1021600,7.953125,7.796875,3.0238358974456787
13-05-1986,7.65625,7.796875,651200,7.796875,7.703125,2.987478017807007
14-05-1986,7.625,7.71875,809600,7.734375,7.625,2.957179069519043
15-05-1986,7.4375,7.640625,608000,7.640625,7.46875,2.896580934524536
16-05-1986,7.3125,7.4375,1061600,7.5,7.5,2.908700704574585
19-05-1986,7.515625,7.53125,737600,7.625,7.609375,2.951117515563965
20-05-1986,7.5625,7.609375,799200,7.75,7.734375,2.9995970726013184
21-05-1986,7.640625,7.75,1017600,7.796875,7.75,3.005657196044922
22-05-1986,7.734375,7.75,465600,7.90625,7.90625,3.0662553310394287
23-05-1986,7.890625,7.921875,533600,8.03125,8.015625,3.108673572540283
27-05-1986,7.953125,7.984375,221600,8.015625,7.984375,3.0965538024902344
28-05-1986,7.875,7.984375,617600,8.0,7.953125,3.084434986114502
29-05-1986,7.8125,7.921875,1089600,7.9375,7.9375,3.078376054763794
30-05-1986,7.828125,7.875,1028000,7.90625,7.890625,3.0601966381073
02-06-1986,7.875,7.90625,1261600,7.953125,7.953125,3.084434986114502
03-06-1986,7.90625,7.921875,451200,7.953125,7.953125,3.084434986114502
04-06-1986,7.96875,7.984375,777600,8.109375,8.09375,3.1389732360839844
05-06-1986,8.015625,8.09375,804800,8.109375,8.109375,3.1450324058532715
06-06-1986,7.890625,8.078125,664800,8.09375,7.921875,3.0723166465759277
09-06-1986,7.578125,7.890625,507200,7.890625,7.625,2.957179069519043
10-06-1986,7.59375,7.609375,776800,7.71875,7.65625,2.9692976474761963
11-06-1986,7.625,7.671875,693600,7.734375,7.71875,2.993537425994873
12-06-1986,7.640625,7.6875,357600,7.859375,7.859375,3.04807710647583
13-06-1986,7.84375,7.84375,600000,8.03125,8.03125,3.114731788635254
16-06-1986,7.9375,8.0,724000,8.0625,8.0625,3.1268539428710938
17-06-1986,7.859375,8.0625,438400,8.0625,7.96875,3.0904932022094727
18-06-1986,7.828125,7.96875,331200,7.96875,7.921875,3.0723166465759277
19-06-1986,7.6875,7.921875,492000,7.9375,7.78125,3.017777442932129
20-06-1986,7.765625,7.78125,617600,7.875,7.84375,3.04201602935791
23-06-1986,7.78125,7.875,881600,7.9375,7.90625,3.0662553310394287
24-06-1986,7.890625,7.9375,989600,8.109375,8.0625,3.1268539428710938
25-06-1986,8.078125,8.109375,1040000,8.171875,8.171875,3.169271469116211
26-06-1986,8.21875,8.34375,1207200,8.6875,8.6875,3.3692450523376465
27-06-1986,8.53125,8.65625,572000,8.65625,8.59375,3.3328866958618164
30-06-1986,8.5,8.5625,396000,8.640625,8.515625,3.3025870323181152
01-07-1986,8.46875,8.5,1366400,8.546875,8.53125,3.3086469173431396
02-07-1986,8.4375,8.53125,1432800,8.53125,8.46875,3.284409523010254
03-07-1986,8.3125,8.484375,1009600,8.484375,8.421875,3.2662289142608643
07-07-1986,8.15625,8.453125,603200,8.453125,8.15625,3.163213014602661
08-07-1986,7.765625,8.0,1141600,8.0,7.9375,3.078376054763794
09-07-1986,7.828125,7.9375,952800,7.96875,7.921875,3.0723166465759277
10-07-1986,7.703125,7.921875,696000,7.921875,7.84375,3.04201602935791
11-07-1986,7.78125,7.875,1339200,7.875,7.875,3.0541367530822754
14-07-1986,7.71875,7.84375,626400,7.84375,7.765625,3.0117170810699463
15-07-1986,7.5,7.71875,1178400,7.75,7.53125,2.9208195209503174
16-07-1986,7.515625,7.625,808800,7.671875,7.515625,2.914759874343872
17-07-1986,7.5,7.5,1128000,7.671875,7.640625,2.9632396697998047
18-07-1986,7.65625,7.75,808800,7.90625,7.78125,3.017777442932129
21-07-1986,7.65625,7.75,498400,7.75,7.71875,2.993537425994873
22-07-1986,7.6875,7.6875,740000,7.875,7.875,3.0541367530822754
23-07-1986,7.8125,7.859375,1444000,7.984375,7.96875,3.0904932022094727
24-07-1986,7.9375,7.96875,552000,8.0625,8.0625,3.1268539428710938
25-07-1986,7.96875,8.078125,448000,8.09375,8.09375,3.1389732360839844
28-07-1986,7.8125,8.078125,580000,8.09375,7.8125,3.0298962593078613
29-07-1986,7.765625,7.828125,768800,7.828125,7.78125,3.017777442932129
30-07-1986,7.65625,7.78125,514400,7.796875,7.703125,2.987478017807007
31-07-1986,7.65625,7.734375,704800,7.734375,7.703125,2.987478017807007
01-08-1986,7.59375,7.6875,1102400,7.6875,7.59375,2.9450600147247314
04-08-1986,7.5,7.5625,620800,7.859375,7.859375,3.04807710647583
05-08-1986,7.71875,7.71875,760800,7.875,7.71875,3.0165669918060303
06-08-1986,7.53125,7.625,532800,7.640625,7.5625,2.9555020332336426
07-08-1986,7.484375,7.59375,768800,7.625,7.5,2.931077480316162
08-08-1986,7.40625,7.546875,616800,7.546875,7.53125,2.9432904720306396
11-08-1986,7.53125,7.5625,1471200,7.859375,7.859375,3.071523427963257
12-08-1986,7.78125,7.828125,952000,7.984375,7.921875,3.095950126647949
13-08-1986,7.921875,7.921875,2211200,8.25,8.1875,3.1997592449188232
14-08-1986,8.203125,8.234375,1181600,8.28125,8.234375,3.2180769443511963
15-08-1986,8.15625,8.3125,1148000,8.3125,8.265625,3.2302932739257812
18-08-1986,8.125,8.25,1219200,8.25,8.21875,3.2119717597961426
19-08-1986,8.171875,8.1875,1656000,8.203125,8.171875,3.193652391433716
20-08-1986,8.1875,8.203125,1321600,8.359375,8.359375,3.266930103302002
21-08-1986,8.34375,8.375,1935200,8.5,8.4375,3.297461748123169
22-08-1986,8.34375,8.46875,779200,8.46875,8.375,3.2730355262756348
25-08-1986,8.28125,8.34375,586400,8.359375,8.296875,3.242504358291626
26-08-1986,8.296875,8.296875,1156800,8.5,8.46875,3.309674024581909
27-08-1986,8.4375,8.453125,981600,8.53125,8.53125,3.334099292755127
28-08-1986,8.5,8.53125,1001600,8.671875,8.640625,3.3768465518951416
29-08-1986,8.59375,8.59375,3828000,8.796875,8.71875,3.407374858856201
02-09-1986,8.453125,8.71875,1000000,8.71875,8.46875,3.309674024581909
03-09-1986,8.375,8.46875,1630400,8.625,8.625,3.370739221572876
04-09-1986,8.640625,8.65625,2874400,9.0,8.890625,3.474547863006592
05-09-1986,8.625,8.875,1639200,8.921875,8.671875,3.3890597820281982
08-09-1986,8.515625,8.59375,1348000,8.78125,8.75,3.419590711593628
09-09-1986,8.625,8.78125,1900800,8.859375,8.65625,3.3829524517059326
10-09-1986,8.5625,8.65625,1460000,8.8125,8.8125,3.4440155029296875
11-09-1986,8.4375,8.8125,2055200,8.8125,8.46875,3.309674024581909
12-09-1986,8.1875,8.484375,2328800,8.5,8.34375,3.2608234882354736
15-09-1986,8.390625,8.46875,1860800,8.484375,8.4375,3.297461748123169
16-09-1986,8.375,8.4375,1300800,8.484375,8.453125,3.303568124771118
17-09-1986,8.34375,8.453125,1265600,8.484375,8.34375,3.2608234882354736
18-09-1986,8.3125,8.34375,861600,8.40625,8.359375,3.266930103302002
19-09-1986,8.28125,8.359375,1069600,8.421875,8.421875,3.2913568019866943
22-09-1986,8.34375,8.390625,415200,8.4375,8.421875,3.2913568019866943
23-09-1986,8.421875,8.4375,1432800,8.546875,8.546875,3.3402063846588135
24-09-1986,8.390625,8.5,820800,8.5625,8.5625,3.346313238143921
25-09-1986,8.3125,8.5625,1181600,8.5625,8.375,3.2730355262756348
26-09-1986,8.25,8.34375,456000,8.359375,8.3125,3.248610734939575
29-09-1986,7.9375,8.28125,1515200,8.28125,8.0,3.1264803409576416
30-09-1986,7.96875,7.96875,930400,8.0625,8.015625,3.132587194442749
01-10-1986,8.015625,8.046875,1239200,8.1875,8.125,3.1753337383270264
02-10-1986,8.109375,8.171875,648800,8.203125,8.109375,3.169227123260498
03-10-1986,8.015625,8.078125,416000,8.1875,8.078125,3.157015085220337
06-10-1986,8.03125,8.046875,403200,8.15625,8.0625,3.1509082317352295
07-10-1986,8.046875,8.078125,541600,8.140625,8.078125,3.157015085220337
08-10-1986,8.078125,8.109375,1105600,8.21875,8.1875,3.1997592449188232
09-10-1986,8.21875,8.21875,1460800,8.28125,8.21875,3.2119717597961426
